1.77000000000000;35.4444500000000;1.22604568377336;80.7750269106567
1.78000000000000;37.5077250000000;1.29179060083284;83.0280172413793
1.96500000000000;39.1478250000000;2.80195333695062;75.6695464362851
1.79500000000000;36.8773250000000;1.38287864534337;79.4874476987448
1.86500000000000;37.4954500000000;1.34335295940502;77.2420837589378
1.85500000000000;37.3741250000000;1.30738946093277;78.9533678756477
1.80500000000000;36.5280500000000;1.01397877297437;81.0416666666667
1.83500000000000;38.4271500000000;1.07583682008368;79.3006993006994
1.83000000000000;39.9441250000000;1.16120436983746;80.4662698412699
1.97000000000000;43.9161750000000;1.24414535666218;80.8632395732299
1.90000000000000;38.5141750000000;1.48346972176759;79.1136600625652
1.84500000000000;38.0508250000000;1.19180790960452;79.7430626927031
1.77000000000000;37.9909000000000;1.16415042547351;82.7282266526758
1.82000000000000;34.9520500000000;1.52945301542777;76.0168598524763
1.87000000000000;36.5788750000000;1.47107990638582;78.0464625131996
1.72500000000000;32.9379000000000;1.08919382504288;79.0054054054055
1.85500000000000;39.6402250000000;1.22694038245219;81.5550978372812
1.98000000000000;42.3899000000000;1.73438045375218;79.6138211382114
1.91000000000000;38.5278750000000;1.62026647966339;77.1207430340557
0.875000000000000;18.5790250000000;0.489531111766441;57.4630261660979
1.80500000000000;37.8402000000000;1.19651880965750;82.3578947368421
1.86500000000000;41.9608000000000;1.36829836829837;83.5354573484070
1.87000000000000;36.2211250000000;1.77181467181467;76.0487288135593
1.89000000000000;38.0889250000000;1.52456258411844;77.9127725856698
1.88000000000000;41.1081750000000;1.51096979332273;81.8341968911918
1.96000000000000;42.0128000000000;1.34037626628075;79.0420332355817
2.07000000000000;42.2483000000000;2.95411303861220;73.1469979296066
2.44000000000000;54.8128000000000;3.32441471571906;70.2081447963801
1.30500000000000;32.3556500000000;1.06115394841797;88.6956521739131
1.95000000000000;40.0701500000000;2.00445885691123;79.1880341880342
1.76000000000000;34.5469750000000;1.21091664194601;74.1592039800996
1.49500000000000;34.9274250000000;1.01677316293930;79.3193717277487
2.18500000000000;49.8236750000000;1.90195394277739;71.6365202411714
2.00500000000000;41.6580000000000;1.84473877851361;76.6303270564916
1.82500000000000;38.1110250000000;1.46121927864667;79.7414684591521
1.96500000000000;39.2665500000000;1.76780415430267;77.4870197300104
1.78500000000000;35.8393250000000;1.08871189233727;78.7267080745342
1.70500000000000;30.5921000000000;1.05548996458087;76.1092896174864
2.21000000000000;51.9544750000000;101.719512195122;82.9852216748769
1.61000000000000;41.9661500000000;1.51414204902577;72.7934485896270
1.80000000000000;36.8882500000000;1.15328874024526;78.8367346938775
1.18000000000000;41.9520250000000;0.373068791673443;85.1108870967742
1.51500000000000;46.7053750000000;1.68196433791289;113.131935881628
1.13500000000000;38.1305500000000;0.366145192476709;76.1960784313725
1.42500000000000;36.2401750000000;2.93070308548306;105.871934604905
0.850000000000000;38.9812500000000;0.231461371393112;91.3463751438435
0.905000000000000;36.7383250000000;0.244520214320507;82.7753779697624
1.40500000000000;38.0165250000000;1.85278654048370;103.025316455696
0.730000000000000;34.8306250000000;0.216770290707444;88.3048780487805
0.840000000000000;20.6692500000000;0.543405027209121;94.6899841017488
1.22500000000000;25.5626250000000;3.73979591836735;107.844112769486
0.635000000000000;25.4173500000000;0.230207532667179;96.8532526475038
1.08000000000000;23.9146750000000;1.70625528317836;103.441033925687
0.910000000000000;35.0742500000000;0.292982456140351;85.7974388824214
1.18500000000000;30.4486500000000;1.79578789018428;104.117647058824
0.620000000000000;29.6465000000000;0.156904801187923;92.6287978863937
1.15500000000000;29.9419750000000;1.52861130495464;107.842261904762
0.480000000000000;25.3841000000000;0.134086097388850;103.012820512821
1.25000000000000;31.1585000000000;2.07800829875519;113.079268292683
0.555000000000000;13.4521250000000;0.208112874779541;78.8651315789474
0.925000000000000;32.8947750000000;0.284159828754905;75.6992639327024
1.49000000000000;41.2025000000000;3.15187376725838;116.137931034483
0.820000000000000;28.8501500000000;0.336019339242546;80.4854368932039
0.355000000000000;27.2135500000000;0.0672853828306264;106.622516556291
0.715000000000000;19.2211500000000;0.338235294117647;91.4424635332253
1.16500000000000;24.7996750000000;2.25000000000000;101.338582677165
0.260000000000000;9.85812500000001;0.128721804511278;61.1237785016287
0.710000000000000;26.7322000000000;0.257400509703980;78.8929889298893
1.48000000000000;38.6647750000000;3.05171530977983;107.222222222222
0.745000000000000;9.61515000000000;0.472651829498303;62.4640000000000
0.630000000000000;14.5987500000000;0.495099495099495;86.6437177280551
1.10000000000000;18.6961250000000;3.80952380952381;104.026217228464
0.605000000000000;20.5914250000000;0.174018126888218;70.7402912621359
1.20500000000000;25.8660250000000;1.78149853495186;97.2913616398243
0.580000000000000;28.6125250000000;0.192545420490729;84.7802929427431
1.15000000000000;24.4568000000000;2.91549295774648;106.036484245440
0.800000000000000;10.4687500000000;0.500712250712251;69.1954022988506
0.510000000000000;25.8230250000000;0.158294717330862;93.4080717488789
1.27500000000000;29.3336500000000;1.93189368770764;104.592592592593
0.600000000000000;30.0602750000000;0.181899321670832;86.6623036649215
0.430000000000000;28.5193000000000;0.0992547425474255;102.852614896989
1.10500000000000;22.1503250000000;2.03746253746254;102.201680672269
0.515000000000000;19.2089000000000;0.201822323462415;91.1226252158895
0.230000000000000;19.6849750000000;0.0458941778873506;115.618448637317
1.29000000000000;28.6285250000000;2.08646953405018;106.147919876733
0.900000000000000;10.8611500000000;1.31385642737897;81.6895874263261
1.02000000000000;20.1496250000000;3.20042796005706;116.153846153846
1.28500000000000;23.2036750000000;8.02044025157233;105.459558823530
0.100000000000000;18.8374500000000;0.0136321195144725;142.467191601050
1.07500000000000;24.1685000000000;1.34560699963544;102.452229299363
1.01000000000000;14.4235500000000;2.47846153846154;84.0520446096654
0.500000000000000;7.76487500000000;0.425156739811912;89.3611793611794
1.08500000000000;21.6934500000000;4.49408553230209;122.226720647773
1.12000000000000;18.9633500000000;2.79084073820916;104.248120300752
1.25000000000000;27.9783250000000;3.31977471839800;123.267857142857
1.26000000000000;29.2787000000000;3.53016688061618;125.364120781528
0.455000000000000;12.7555000000000;0.201663201663202;100.086580086580
1.10000000000000;24.3035000000000;1.63927691043550;104.285714285714
0.285000000000000;14.4075500000000;0.0897378942692137;113.828306264501
1.16000000000000;21.6597250000000;1.38041357783847;94.5891472868217
0.690000000000000;33.9759500000000;0.146712694178566;88.5818181818182
0.990000000000000;45.8440000000000;0.195224719101124;80.8167141500475
1.07000000000000;35.5182000000000;0.273106323835997;70.8704061895551
0.855000000000000;42.0689000000000;0.172714078374456;80.1587301587302
1.13000000000000;42.3456250000000;0.266103316326531;69.7803163444640
0.825000000000000;62.3256750000000;0.114850798056905;87.0731707317073
0.970000000000000;54.0963000000000;0.171465968586387;80.1971326164875
0.735000000000000;37.2366500000000;0.135002878526195;84.6137339055794
0.945000000000000;37.0655750000000;0.260333449114276;71.9940476190476
0.775000000000000;45.4825750000000;0.120166487647691;83.5971943887775
0.865000000000000;34.2672000000000;0.211879873900780;79.7379912663755
1.77500000000000;63.2366750000000;2.28361408882083;124.229432213210
0.885000000000000;37.2533750000000;0.206275884039503;77.5922131147541
0.980000000000000;32.8938500000000;0.293058161350844;71.1983471074381
0.850000000000000;40.9678000000000;0.268678392770695;86.8729281767956
0.335000000000000;54.2422000000000;0.0426801284993116;110.425273390036
1.26000000000000;36.4545000000000;1.38961038961039;110.299727520436
0.515000000000000;37.7194500000000;0.130850904740541;92.5581395348837
0.340000000000000;28.3326750000000;0.0602627257799671;107.616666666667
0.995000000000000;33.9107750000000;1.10462097611630;134.891846921797
0.315000000000000;24.8765500000000;0.0602697626771385;95.6856702619415
0.235000000000000;25.2144250000000;0.0536405205768554;102.061328790460
0.345000000000000;21.0913000000000;0.0924079754601227;97.5684931506849
0.260000000000000;24.4341750000000;0.0805342761736398;89.0129449838188
0.385000000000000;13.8078750000000;0.173802888269572;90.4882812500001
0.585000000000000;9.36927500000000;0.371361659417866;81.8163672654691
0.640000000000000;7.64572500000000;0.857439087610160;81.0633484162896
0.875000000000000;12.2773250000000;1.27769498261302;91.3346613545817
0.915000000000000;13.5629750000000;1.32849540396710;92.7360308285164
0.885000000000000;13.8180000000000;0.911249513429350;90.5904059040590
0.880000000000000;12.8633750000000;1.17201834862385;94.8897795591183
1.15000000000000;19.2099750000000;1.92902208201893;93.6302521008403
0.960000000000000;17.7387500000000;0.786370839936609;94.4053601340034
1.29000000000000;21.2616750000000;1.65640790078089;86.3134328358210
0.335000000000000;27.1859250000000;0.0914998243765366;92.6229508196721
1.41000000000000;27.3372500000000;2.41706412294648;88.0874316939891
1.52000000000000;33.2139500000000;3.61791831357049;97.4965229485397
1.58000000000000;32.9549250000000;2.29332715477294;92.0595854922280
1.43500000000000;26.0638000000000;2.66706443914081;90.7828655834564
1.53000000000000;37.6360750000000;3.38404977375566;107.503467406380
1.46500000000000;26.9696750000000;3.81608280254777;90.6896551724138
1.57000000000000;30.2442500000000;9.54159292035398;87.8466076696166
0.925000000000000;9.27707500000000;1.13875878220141;63.0915371329879
1.32000000000000;23.7588500000000;3.70473083197390;91.8471337579618
1.51500000000000;35.0936250000000;4.75000000000000;101.612903225806
1.45000000000000;26.2180500000000;1.93877551020408;79.1815856777494
0.915000000000000;13.8621500000000;0.555341055341055;50.6178010471204
0.920000000000000;15.5765500000000;0.692454632282713;76.4892086330936
0.620000000000000;27.8340750000000;0.246546431312356;92.1560283687944
1.79500000000000;37.0334500000000;3.20681265206813;81.8461538461539
1.84000000000000;38.0399000000000;4.13944817300522;79.3095512082854
1.73500000000000;35.7956000000000;2.44762845849802;72.1613236814891
1.91000000000000;39.3507000000000;4.49960536700868;75.7391304347826
1.19000000000000;25.9708750000000;0.597373637264619;69.7727272727273
1.87500000000000;39.0917000000000;1.62273361227336;72.5361620057860
1.98000000000000;38.4034000000000;2.65314834578442;64.8909952606635
1.75000000000000;32.0664750000000;1.54562594268477;66.5779092702170
1.77500000000000;34.5346500000000;1.33786407766990;70.1359223300971
1.86500000000000;41.1701250000000;1.71507416350466;72.1448212648947
1.87500000000000;40.6404750000000;1.24943883277217;79.7711442786070
2.07000000000000;54.0043500000000;2.45433255269321;85.8389912706111
2.16500000000000;56.2921500000000;2.21073067419696;83.0684931506849
2.18000000000000;55.0100250000000;1.78659666460778;81.0691823899371
2.31000000000000;62.5200000000000;2.23858565053210;76.0806451612904
2.24000000000000;60.9908000000000;3.48316831683168;73.2093775262733
2.11500000000000;50.9842750000000;2.97842761265580;76.9851576994434
2.11500000000000;41.6074000000000;5.77685950413223;64.2507345739471
1.91500000000000;37.5418500000000;3.83756735950731;59.8476190476191
1.97500000000000;36.7330750000000;2.29252704031465;63.9026717557252
1.52000000000000;28.4143250000000;1.40969479353680;71.9292604501608
0.810000000000000;29.0125000000000;0.271420465292226;64.6346153846154
0.435000000000000;52.0653500000000;0.0679444649219806;89.9792960662526
0.390000000000000;6.93737500000000;0.143312101910828;55.8031088082902
1.96000000000000;61.8592250000000;2.66849415204678;107.924731182796
1.98000000000000;47.2197250000000;2.03784362727597;84.9201596806388
1.95000000000000;42.7720750000000;1.73191933240612;76.7285156250000
1.35000000000000;22.5079750000000;0.967143786597268;71.7319098457888
1.95000000000000;45.2532750000000;1.96565582754841;80.2075098814230
2.05500000000000;54.2044000000000;1.75208085612366;86.9295774647888
1.80500000000000;41.6128250000000;1.56378205128205;81.3733468972533
1.99500000000000;47.9111500000000;2.03179190751445;83.1714568880079
2.16000000000000;63.8834750000000;2.32897822445561;94.9092645654250
2.09000000000000;53.5205000000000;2.52955367913148;86.7391304347826
2.08500000000000;51.1552250000000;1.81290531776913;81.0747663551402
1.96000000000000;49.2633000000000;1.64062033999404;86.7189030362390
2.21500000000000;61.7794750000000;2.68464894882983;88.5510009532889
2.12500000000000;72.9789000000000;2.26403326403326;106.802721088435
2.11500000000000;63.2740000000000;1.80877046905357;96.0151802656547
2.11000000000000;57.5662000000000;2.38629737609329;88.4110371075167
2.26000000000000;67.9899750000000;2.42416016287750;93.0904059040591
1.92000000000000;45.8580250000000;2.87967401725791;89.8224195338513
2.25500000000000;74.4006750000000;3.72348993288591;101.901544401544
2.15000000000000;78.8260000000000;2.66465160674515;113.254670599803
0.0550000000000000;20.9542500000000;0.0124688279301746;71.5176151761518
1.81500000000000;41.7388500000000;1.15030112594920;83.5401831129197
2.18500000000000;62.2321750000000;2.62163173652695;93.4975845410628
1.99500000000000;58.4825500000000;3.13495864170657;102.349137931034
1.60000000000000;35.2980500000000;2.18363794604004;92.2572509457755
0.270000000000000;9.57975000000000;0.149863760217984;105.764411027569
0.870000000000000;13.5219500000000;1.15144766146993;93.6046511627907
1.04000000000000;14.9120000000000;1.37084148727984;87.4729241877256
0.0900000000000000;24.3620000000000;0.00933333333333334;142.494117647059
1.03500000000000;27.2754250000000;1.44056891296986;116.618122977346
0.760000000000000;8.29975000000000;1.75552170601676;89.3333333333334
1.03500000000000;15.2093250000000;2.99916317991632;97.3319755600815
1.04000000000000;26.1276500000000;2.43719571567673;134.220532319392
0.405000000000000;6.05787500000000;0.289962825278810;71.6284403669725
0.940000000000000;16.3078500000000;1.06301050175029;96.2613430127042
0.170000000000000;24.6564500000000;0.0315929497838377;120.700389105058
0.0250000000000000;8.28165000000000;0.00505200594353640;92.4043715846995
1.04000000000000;17.8944750000000;1.22983380624240;95.8362369337979
0.880000000000000;14.0272250000000;1.10318471337580;99.2585170340682
0.730000000000000;10.5464750000000;0.629424778761062;87.1597633136094
0.795000000000000;10.2743500000000;1.17844249613203;92.4288840262582
1.36000000000000;23.8988250000000;2.10501567398119;88.8340807174888
1.15000000000000;21.9889000000000;1.61610968294773;98.8025889967638
0.230000000000000;34.1992500000000;0.0335589396503102;119.381107491857
1.56000000000000;38.1229000000000;1.96227119910347;99.8740554156172
0.220000000000000;38.2474250000000;0.0267387087835966;130.936395759717
1;21.1625750000000;1.82642725598527;106.579861111111
0.505000000000000;26.8774250000000;0.131325730577334;79.4618272841052
-0.170000000000000;19.9010250000000;0;116.201232032854
1.83000000000000;44.4044000000000;2.47324062368310;94.0867579908676
0.145000000000000;6.03017500000000;0.0545132743362832;71.7831325301205
0.590000000000000;35.1337500000000;0.0853476574156968;86.3895486935867
1.64500000000000;66.4203250000000;1.60430501488436;119.464285714286
0.830000000000000;33.5302500000000;0.187596367997259;78.4162895927602
2.05000000000000;47.4245250000000;2.58212241303391;80.7043650793651
0.545000000000000;5.92115000000000;0.236658078763342;60.0000000000000
0.980000000000000;26.0494000000000;0.402495075508864;74.6853146853147
1.35500000000000;27.1086500000000;3.68888888888889;91.2432432432433
0.255000000000000;9.18772500000000;0.0591077010514351;64.5927209705373
0.440000000000000;7.21147500000000;0.153518123667377;70.5214152700186
0.710000000000000;51.1978250000000;0.120498971193416;88.7270875763748
1.46500000000000;29.8853000000000;0.758961038961039;70.5416666666666
1.51000000000000;41.8664250000000;2.08551922385915;101.142520612485
1.04000000000000;29.4922750000000;0.508074798130047;83.0058479532164
0.290000000000000;7.90022500000000;0.304828150572831;49.0615384615385
0.780000000000000;25.6289250000000;0.316136114160264;71.7105263157895
0.730000000000000;34.4453000000000;0.196457855034438;81.1568409343715
0.650000000000000;25.2240500000000;0.157045995968481;86.0217983651226
1.36000000000000;43.7093500000000;1.52159187129551;116.937172774869
0.640000000000000;22.5385500000000;0.218951062585299;87.5630252100840
0.400000000000000;19.4925250000000;0.108459869848156;104.092592592593
0.910000000000000;13.0065000000000;2.73696872493986;100.000000000000
-0.0100000000000000;5.91695000000000;0;97.6507936507937
0.0500000000000000;3.76937500000000;0.0259275815824765;76.5000000000001
0.240000000000000;13.4157750000000;0.0705590062111801;107.189054726368
0.230000000000000;16.6820000000000;0.0512550094916684;116.721311475410
0.170000000000000;16.3720750000000;0.0363675031901319;121.218905472637
0.505000000000000;5.92505000000000;0.813414634146342;75.6743002544530
-0.100000000000000;13.0924250000000;0;146.778115501520
0.185000000000000;16.1234000000000;0.0422715627668659;122.355889724311
1.13500000000000;22.7663500000000;1.32243684992571;101.165048543689
-0.0100000000000000;7.57702500000000;0;110.000000000000
1.44000000000000;34.2893000000000;3.49252839210998;96.4826700898588
0.180000000000000;11.7461000000000;0.113179225457820;57.7570093457944
1.06500000000000;38.3790500000000;0.353156146179402;91.4253647586981
1.56000000000000;54.5862250000000;1.57239989926971;105.526859504132
1.15500000000000;22.1678750000000;0.453178905864958;63.5452586206897
1.08500000000000;36.8417250000000;0.382085755813954;80.2426160337553
1.29000000000000;31.7289500000000;2.77025641025641;95.3566796368352
0.180000000000000;23.6359750000000;0.0337428938199156;81.9331395348837
2.26500000000000;56.3932000000000;1.92780137210062;76.1427357689040
2.31000000000000;61.6633750000000;2.40155440414508;82.1358355674710
2.43500000000000;76.4410750000000;3.66412556053812;91.6387665198238
2.44500000000000;78.2599500000000;3.16536661466459;90.8936170212766
2.34000000000000;65.3517750000000;2.49927272727273;86.9286359530262
2.29000000000000;60.5785250000000;3.16459197786999;83.7164040778498
2.32000000000000;67.7057750000000;2.92001591723040;90.8763837638377
1.96000000000000;47.7156000000000;3.29555084745763;87.4865156418555
0.0100000000000000;28.6624750000000;0.000487804878048780;90.2199413489736
2.17000000000000;69.5337750000000;1.94003815753611;100.531220876049
0.925000000000000;34.9761000000000;0.254671280276817;79.6048298572997
1.66500000000000;65.4653750000000;2.19994237971766;127.520091848450
0.210000000000000;15.8387750000000;0.110918972332016;61.2670299727520
0.880000000000000;38.4306750000000;0.203208556149733;81.5934065934066
1.69500000000000;62.6173250000000;1.89624183006536;116.229508196721
0.250000000000000;10.9531750000000;0.126221966647499;61.2989045383411
0.920000000000000;41.7667750000000;0.260351216368616;84.7562296858071
0.640000000000000;39.7357750000000;0.106254598969831;87.3054587688734
0.710000000000000;42.5735500000000;0.143268538516919;93.4117647058823
1.45500000000000;56.9556500000000;1.40205494750949;121.927437641723
0.0750000000000000;14.6638250000000;0.00625390869293309;81.9524617996605
1.88000000000000;50.5044250000000;2.15932322876278;97.0021645021645
0.595000000000000;24.9215250000000;0.237621753246753;102.849915682968
0.390000000000000;24.2044500000000;0.0917123166637215;101.947194719472
0.955000000000000;24.6373500000000;1.53837759185158;127.335766423358
0.460000000000000;16.6801000000000;0.299240506329114;105.379876796715
0.185000000000000;16.2616750000000;0.0443960826985854;116.198547215496
0.105000000000000;22.3130000000000;0.0122901159771508;139.904306220096
0.235000000000000;16.7944000000000;0.0718061674008811;120.445544554455
0.695000000000000;9.63540000000000;2.48797250859106;96.8973747016706
0.105000000000000;5.00295000000000;0.0395962732919255;82.1472392638037
0.645000000000000;13.0688250000000;0.588369070825211;100.390143737166
0.595000000000000;18.2616750000000;0.383825738607912;106.493256262042
0.590000000000000;20.9833500000000;0.231333621061718;99.7552447552448
0.870000000000000;17.1625750000000;2.14991482112436;108.764705882353
0.730000000000000;18.8555000000000;0.457245263696876;97.8006872852234
0.680000000000000;22.3906000000000;0.315766359244620;95.1111111111111
1.26500000000000;35.1840500000000;2.54977973568282;124.351851851852
0.830000000000000;13.8565000000000;0.650848631797714;72.1028744326778
0.795000000000000;31.1726250000000;0.256708407871199;98.5273492286115
1.84000000000000;47.1131250000000;2.07810271041369;93.7133550488600
2.07000000000000;56.5749500000000;2.10104986876640;95.1863041289023
1.29500000000000;35.6991250000000;0.542598187311178;82.8896103896104
2.18500000000000;67.8260250000000;2.18608215818516;98.2325141776937
2.24000000000000;65.6183250000000;2.03044002411091;89.6966993755575
2.21000000000000;58.5314500000000;1.72304562627143;82.7007943512798
2.20000000000000;68.7628250000000;1.88581599123768;93.1830238726791
2.18000000000000;57.5683250000000;1.98565373328986;82.4212421242124
2.14000000000000;62.6872250000000;1.93008849557522;91.9722222222222
2.14500000000000;66.4316500000000;1.50346972960038;90.1119724375538
2.28500000000000;72.5074250000000;2.38874761602034;97.0947176684882
2.27500000000000;68.5294500000000;1.72010582010582;88.0308219178082
2.37000000000000;72.2261500000000;2.03113180098923;88.9666951323655
2.38000000000000;83.2918250000000;2.20898437500000;96.9730185497471
2.41500000000000;71.7118500000000;2.03779244151170;83.8410596026490
2.36000000000000;72.2512000000000;1.84079197179279;87.0656691604323
2.34000000000000;71.4920750000000;1.99121007910929;85.2882205513785
2.38500000000000;73.3476250000000;2.28984596038982;91.1585365853659
2.43500000000000;73.0173750000000;1.96438911407064;82.5725806451613
2.36000000000000;75.5062750000000;2.09908098793797;92.9457364341086
2.38000000000000;79.7035499999999;1.94646121702794;95.1264755480607
2.14500000000000;58.6557000000000;1.03265479219678;78.8971193415638
2.48000000000000;83.5684000000000;2.15715883668904;93.0750206100578
2.57000000000000;92.2581750000000;2.59108820854804;97.1065573770492
2.41500000000000;64.8246750000000;2.06459170013387;75.1806239737274
1.69000000000000;44.8156250000000;0.692506459948321;77.6916058394161
2.55500000000000;99.1970750000000;3.54101915431876;109.546643417611
1.31500000000000;39.4345250000000;0.473311651042663;72.4459078080903
1.28500000000000;41.9066250000000;0.429501848266150;75.1944444444445
1.23000000000000;37.7194250000000;0.437120235684036;77.2772277227723
1.23000000000000;36.0892500000000;0.429219429219429;75.9236947791165
1.07000000000000;32.1426500000000;0.436417910447761;84.7183098591549
0.835000000000000;26.5302500000000;0.307478122513922;91.0526315789474
0.865000000000000;26.3342750000000;0.445685501533071;101.553846153846
0.255000000000000;2.00127500000000;0.723985890652557;68.1184668989547
0.605000000000000;28.1112500000000;0.161167071899965;104.468750000000
0.735000000000000;24.1135750000000;0.770082389289392;137.500000000000
0.685000000000000;28.1469500000000;0.243354548858106;109.603960396040
0.645000000000000;21.8939500000000;0.277003484320557;103.057996485062
1.28000000000000;28.7524500000000;1.97247706422018;111.899529042386
0.825000000000000;19.7969250000000;0.534816753926702;103.769911504425
1.16500000000000;25.4733500000000;1.62168486739470;108.070739549839
0.845000000000000;15.9228750000000;0.592830882352941;93.8447653429603
1.22000000000000;29.4832500000000;2.19219088937093;122.023217247098
0.480000000000000;23.6426000000000;0.124723247232472;108.277087033748
1.31500000000000;30.2632750000000;2.32637923041261;108.877086494689
0.745000000000000;19.4293500000000;0.383588729609491;98.5563380281690
0.740000000000000;15.9468250000000;0.438394611282627;94.0366972477064
0.675000000000000;17.7123250000000;0.353487205218264;99.1727941176470
0.640000000000000;19.2185500000000;0.282180485570316;99.6085409252669
0.795000000000000;21.3153000000000;0.371134020618557;95.1544715447154
1.46500000000000;34.1483500000000;2.02747909199522;104.279835390946
0.875000000000000;16.9586250000000;0.682200841852075;96.1340206185567
0.770000000000000;30.3754500000000;0.254347826086957;97.2471910112359
0.955000000000000;34.1702000000000;0.288484640466793;93.0359355638166
1.05500000000000;29.7532750000000;0.436581833229878;92.4500665778962
1.30500000000000;31.1854750000000;0.663681357530049;85.9805115712545
1.33000000000000;32.1584250000000;0.561277705345502;81.4625850340136
1.92000000000000;55.1280250000000;3.75482233502538;107.790563866513
1.69500000000000;42.4014750000000;0.847045454545454;80.3063241106719
2.11500000000000;58.6782750000000;2.27226027397260;95.2642073778664
2.21500000000000;68.3440000000000;2.42405271828666;98.2230623818526
2.02500000000000;53.6614000000000;1.03932082216265;77.6851063829787
1.05500000000000;38.1965250000000;0.284358583290968;74.8913043478261
0.900000000000000;48.8967500000000;0.160031847133758;82.9411764705882
0.535000000000000;32.3958500000000;0.0998243092157802;91.8133333333333
0.680000000000000;26.6708750000000;0.193499334727238;86.1316872427984
0.665000000000000;29.4122250000000;0.207238026647461;82.5738916256158
0.585000000000000;31.3395750000000;0.166395045632334;80.2354260089686
-0.120000000000000;36.5596750000000;0;110.726172465961
0.515000000000000;26.5680750000000;0.168636867380864;96.8912710566616
0.870000000000000;13.4153500000000;3.07883461868038;88.4758364312268
0.670000000000000;28.6076250000000;0.220796629643815;83.5517693315858
0.550000000000000;28.9363750000000;0.169534504618728;96.9519519519520
0.430000000000000;24.9109750000000;0.136214547559329;105.348837209302
0.345000000000000;23.7304000000000;0.0838827838827839;112.296015180266
0.290000000000000;18.1963000000000;0.0907931107803530;119.025522041763
0.965000000000000;14.6894500000000;1.56471816283925;95.9765625000000
1.05500000000000;16.1137250000000;3.25360474978796;104.045643153527
1.09000000000000;16.2887000000000;3.38556338028169;99.6400000000000
1.11000000000000;17.2805500000000;3.90371782650143;101.660079051383
1.18000000000000;22.3016000000000;3.41167883211679;110.091074681239
1.22000000000000;23.2220000000000;3.10589812332440;106.539130434783
1.07500000000000;19.0039250000000;2.09115720524018;102.963636363636
0.975000000000000;14.4559000000000;2.28738800827016;97.9466119096510
1.09000000000000;18.0872250000000;2.43358876117497;98.6605504587157
1.03000000000000;16.3589250000000;1.82078064870808;94.1467889908257
1.17500000000000;20.6762500000000;4.21087160262418;102.772643253235
1.30000000000000;25.8989250000000;4.76422018348624;107.035775127768
1.34500000000000;24.6292500000000;4.53277931671284;99.8666666666667
0.640000000000000;10.9786000000000;0.775541795665634;104.748858447489
1.25000000000000;23.3289500000000;6.28770595690748;106.284658040666
1.36500000000000;24.5953500000000;3.41690962099125;96.1904761904762
0.545000000000000;14.5832750000000;0.431074095347501;104.905263157895
1.03000000000000;13.8595000000000;2.26017943409248;89.1320754716981
1.29500000000000;22.7071500000000;2.07837980010521;88.0000000000000
0.440000000000000;17.8008000000000;0.242387916566771;104.265593561368
0.340000000000000;24.6570250000000;0.0996746018153794;114.456327985740
0.525000000000000;21.1599000000000;0.192380154908939;100.281690140845
1.05500000000000;17.0688750000000;1.23086627417998;89.7631133671743
0.455000000000000;34.7679750000000;0.101242056614674;109.240687679083
0.580000000000000;39.9920250000000;0.135530594147207;94.6182266009852
1.25000000000000;32.7088500000000;2.08088531187123;110.158273381295
0.840000000000000;45.0012250000000;0.173626058258000;77.8211227402474
0.755000000000000;47.3098000000000;0.135352452425623;90.2236421725240
1.47500000000000;39.1378250000000;2.78538175046555;106.706036745407
0.955000000000000;45.3759500000000;0.223409196470042;71.9017288444040
0.855000000000000;42.2600250000000;0.191265976871576;79.4016227180527
0.720000000000000;54.2538000000000;0.138964577656676;89.8464687819857
0.660000000000000;49.1679500000000;0.110265194772237;88.2946518668012
0.970000000000000;29.3334250000000;0.336662749706228;76.5134529147982
0.800000000000000;30.9646250000000;0.244731715955375;88.1932245922208
1.15500000000000;23.9466750000000;1.86791610887996;94.5147058823529
0.940000000000000;39.0201000000000;0.310344827586207;79.8751300728408
1.85000000000000;42.7869250000000;1.92801484230056;84.6673819742490
1;29.2663000000000;0.510772578890098;84.1454545454545
1.75000000000000;39.0918750000000;2.04230459307011;84.6524663677130
1.62000000000000;31.5158500000000;1.45802072168632;80.0000000000000
1.30000000000000;22.7467750000000;0.866973886328725;78.6157826649418
1.54500000000000;29.3512000000000;1.35945663531870;80.7389749702026
1.99500000000000;50.5906750000000;2.32517482517482;89.0634755463060
1.92000000000000;43.7678500000000;2.23566345751360;81.5400843881857
0.875000000000000;35.0262250000000;0.290042523033310;82.7386363636364
1.95500000000000;49.7292000000000;2.09696092619392;86.2903225806452
0.910000000000000;35.0240250000000;0.306721931879618;81.0167597765363
2.20500000000000;63.1667750000000;2.57068645640074;90.7830188679245
2.12000000000000;55.9440250000000;3.01040723981901;88.8966900702106
2.21500000000000;62.3050750000000;2.93689114781872;87.5235404896422
1.68500000000000;30.4950500000000;1.49773755656109;72.5520262869661
0.960000000000000;30.9175000000000;0.328568876183670;75.7230142566192
1.78500000000000;39.4608250000000;1.68710134656272;80.9284951974387
0.145000000000000;11.0323000000000;0.0647840531561462;64.8566610455312
0.750000000000000;16.5058500000000;0.275853220425969;60.4866180048662
0.880000000000000;36.7033250000000;0.301573426573427;82.9064587973274
0.855000000000000;30.2602750000000;0.333267832580075;79.8235294117647
1.38000000000000;44.0687750000000;1.87597870341372;118.796895213454
1.44500000000000;32.3493250000000;0.691429902189101;75.0309917355372
1.38000000000000;34.0597500000000;0.822021831988609;78.2670744138634
1.59000000000000;37.2541250000000;5.23944805194805;93.9731051344744
1.55500000000000;27.3919750000000;1.24237047551455;59.4449670743180
1.07500000000000;33.9148500000000;0.410041023637429;77.1153846153846
1.48500000000000;33.2044500000000;3.33155713439905;89.7668711656442
1.02500000000000;35.7936500000000;0.275054741451912;80.0211416490486
1.54000000000000;36.7105250000000;2.17981201471189;95.2386780905753
1.24500000000000;29.0787750000000;0.605472404115996;77.3957158962796
1.53500000000000;53.4527250000000;1.77511037527594;111.127071823204
0.925000000000000;20.7099500000000;0.615755627009647;84.1004184100419
1.27000000000000;27.4828250000000;2.52557411273486;96.7765042979943
0.420000000000000;18.3662750000000;0.120610367892977;103.494208494209
0.870000000000000;14.8241750000000;1.45968534906588;97.9060665362035
0.855000000000000;32.0106000000000;0.293161335925075;82.4099099099099
1.33500000000000;41.9641000000000;1.69597523219814;115.644090305445
1.00500000000000;39.5645500000000;0.287871407696055;83.6708860759494
1.60000000000000;57.0376250000000;2.08541353383459;120.269636576788
1.07000000000000;43.4481250000000;0.277136258660508;84.9027635619243
1.61500000000000;57.7735000000000;2.16743471582181;119.190751445087
1.10500000000000;37.6361750000000;0.333159993066389;79.0441932168551
1.62000000000000;51.8539750000000;2.62320527745440;110.890736342043
1.11000000000000;37.6733000000000;0.358987875593042;79.3230769230770
1.73000000000000;58.8202500000000;2.59900284900285;114.450736126840
1.23500000000000;34.8961750000000;0.429632450961722;75.4472361809045
1.37500000000000;47.8792250000000;1.94190246839253;138.427762039660
1.17500000000000;39.6253500000000;0.376752440106477;72.3694029850746
1.82000000000000;64.0215250000000;3.64202508960573;118.818807339450
1.13000000000000;41.7895250000000;0.318233479460952;78.3687258687259
1.82000000000000;64.3604000000000;3.35481171548117;115.773081201335
1.14000000000000;37.1053000000000;0.346365736626977;71.6745506149480
1.80000000000000;60.4608000000000;2.97058823529412;112.373453318335
1.11500000000000;39.6395250000000;0.393468389800908;79.0782953419227
1.80500000000000;63.3552500000000;3.05182567726737;113.656387665198
1.15000000000000;35.8251000000000;0.365282604719224;72.4660194174757
1.76000000000000;57.8101750000000;3.04899497487437;108.640449438202
1.17000000000000;35.4763750000000;0.423848652780432;73.6993076162215
1.72500000000000;56.9546250000000;3.16419176919813;116.429418742586
1.27500000000000;34.0751000000000;0.531048805815161;72.8458498023715
1.74500000000000;56.8350750000000;4.08826638477801;114.743742550655
1.15000000000000;34.6300250000000;0.361642817320201;73.4168336673347
1.61000000000000;50.5753500000000;3.17140279657194;116.915297092288
0.975000000000000;33.6719750000000;0.287458986511119;76.6883821932681
1.52500000000000;43.8977750000000;2.50243704305443;105.415647921760
0.895000000000000;36.6728000000000;0.248194353250164;79.1259105098856
1.54500000000000;48.8875250000000;2.27405040823571;111.254523522316
0.915000000000000;36.6315000000000;0.268357810413885;82.4295010845987
1.62500000000000;50.8886750000000;3.14121292607348;115.923172242875
0.950000000000000;30.9921000000000;0.319946959651449;75.6568946796960
1.68500000000000;52.5286250000000;2.81531531531532;110.916666666667
1.01000000000000;34.3832500000000;0.334901393160847;81.6150442477876
1.65000000000000;51.5966500000000;3.20549797205949;113.666260657735
1.02500000000000;34.2932250000000;0.311198148477835;78.0190677966102
1.51500000000000;47.0493000000000;2.46630934150077;117.279792746114
0.840000000000000;29.1343250000000;0.264619345347554;88.8501291989664
1.04000000000000;28.6414750000000;1.43526432415321;138.363309352518
0.605000000000000;27.0998250000000;0.188007380073801;91.7236467236467
1.19000000000000;28.7191000000000;3.01949541284404;109.874608150470
0.510000000000000;20.9017000000000;0.203803760535984;99.8207885304659
1.14000000000000;29.4234500000000;2.85857519788918;123.722504230118
0.100000000000000;7.22602500000000;0.0454988625284368;87.1815718157182
0.520000000000000;10.5477250000000;0.415265635507734;100.453460620525
1.07500000000000;23.6271250000000;2.86568047337278;125.876685934489
0.415000000000000;15.5815000000000;0.210552513688402;108.814317673378
0.930000000000000;16.8853250000000;3.73403324584427;115.373134328358
-0.0650000000000000;15.9579000000000;0;140.000000000000
0.385000000000000;4.65337500000000;0.505924781040701;91.3437500000000
0.700000000000000;15.7571250000000;1.29106280193237;143.350125944584
0.235000000000000;18.5000250000000;0.0725158562367865;121.654676258993
0.195000000000000;20.1187000000000;0.0365695192129200;124.642857142857
0.130000000000000;24.9049500000000;0.0160761154855643;146.084905660377
0.245000000000000;19.9697750000000;0.0470856274919309;124.492099322799
0.770000000000000;11.8868000000000;1.55328798185941;96.8602150537635
0.460000000000000;13.8109750000000;0.260657073038284;100.934782608696
0.425000000000000;15.1529750000000;0.235064935064935;100.955414012739
0.905000000000000;13.6009750000000;3.04114189756507;100.062370062370
0.495000000000000;17.5756250000000;0.222326234495671;96.5434380776340
1.06000000000000;19.9293500000000;4.22756119673617;108.792452830189
0.525000000000000;18.9852500000000;0.193569698304338;103.041825095057
0.920000000000000;15.5847000000000;2.50922761449077;100.864440078585
0.505000000000000;23.0941250000000;0.148891031822565;96.5478119935170
0.990000000000000;16.8774250000000;2.20108368452739;94.7771836007130
0.535000000000000;22.0276250000000;0.209200666111574;99.4691780821918
1.09500000000000;19.3437500000000;3.57560975609756;98.5639229422067
0.690000000000000;27.4087750000000;0.200249420986994;94.6207865168540
0.420000000000000;19.5380000000000;0.196625263651277;73.4676258992806
1.44000000000000;38.9547750000000;0.583813879498906;80.5358948432760
1.37000000000000;29.1003250000000;3.10286062081558;86.3124199743918
0.440000000000000;23.5232000000000;0.160591133004926;74.5569620253165
0.855000000000000;34.4127500000000;0.306777030522504;89.2579505300353
1.49000000000000;42.5788000000000;2.20999627004849;109.213197969543
0.0150000000000000;26.4923500000000;0.000845594452900389;89.3957703927493
0.855000000000000;30.2236750000000;0.268227305218013;83.2981220657277
1.54000000000000;54.1838000000000;2.00596302921884;118.194607268464
0.875000000000000;18.2520000000000;0.356826137689615;75.2134540750324
0.850000000000000;32.0930000000000;0.296178937558248;79.1126279863481
1.26000000000000;20.9529250000000;2.77182539682540;81.8220946915351
1;18.1351500000000;0.609403254972875;62.2377622377623
2.26000000000000;71.4248000000000;2.32076657241596;97.8703703703704
1.05000000000000;34.0090500000000;0.363035680573910;74.8186528497409
2.29000000000000;63.0459250000000;2.86100861008610;87.7632805219013
2.29500000000000;72.2221500000000;2.42445582586428;96.6395663956639
2.37500000000000;70.5230000000000;2.91906614785992;90.9025270758123
2.39000000000000;71.2856000000000;2.61294964028777;85.9931506849316
1.86000000000000;41.1246500000000;2.64466019417476;82.0546448087432
2.12000000000000;57.0015000000000;2.37706119457677;90
1.52000000000000;28.1195500000000;1.17300813008130;78.4272300469484
1.26000000000000;34.1794250000000;1.90925994793604;106.146540027137
2;48.4464500000000;2.46995884773663;85.7782299084435
0.885000000000000;47.8943500000000;0.166553733568234;86.3390170511535
2.20500000000000;71.5828250000000;2.11914765906363;91.7299205648720
1.50000000000000;27.3906500000000;1.27349228611501;77.6526946107785
0.760000000000000;38.4381000000000;0.178993163455562;85.7401129943502
0.530000000000000;38.4901000000000;0.0840062331775039;101.620185922975
0.820000000000000;36.4736500000000;0.212687167927870;81.6919739696313
2.19500000000000;70.4619750000000;2.06842417061612;94.2584167424931
0.195000000000000;12.9531750000000;0.121244349906940;63.7972768532527
0.730000000000000;39.5569750000000;0.151898734177215;85.3446327683616
1.40000000000000;35.7807500000000;3.19139784946237;99.8207426376441
0.665000000000000;42.5397500000000;0.119809203142536;89.2841163310962
0.925000000000000;29.3988750000000;0.306148987553409;86.8024691358025
1.27000000000000;32.6868750000000;1.54476629361422;95.7992565055761
0.425000000000000;19.3864000000000;0.122891566265060;73.2285714285714
0.390000000000000;19.2721500000000;0.0849539406345957;83.7282780410743
0.575000000000000;20.3223500000000;0.197823721436344;78.0709219858156
0.260000000000000;26.2791250000000;0.0437265459291891;99.3322981366459
0.545000000000000;22.5845750000000;0.161184210526316;85.6062767475036
0.385000000000000;17.5146000000000;0.100289081609962;77.9212598425197
0.490000000000000;18.5077000000000;0.151119808654055;78.4296296296296
0.540000000000000;15.6269500000000;0.190946303876716;74.0419161676647
0.530000000000000;16.1141500000000;0.173519163763066;79.9367088607595
0.570000000000000;15.8807750000000;0.224164133738602;70.7613469985359
0.640000000000000;15.2373000000000;0.268253543728269;70.0443131462334
0.375000000000000;13.6509750000000;0.120457433290978;75.2389078498294
0.565000000000000;23.0365250000000;0.163829361105548;79.8214285714286
0.380000000000000;20.5347750000000;0.0862998921251348;69.8335644937587
0.560000000000000;22.7251500000000;0.175030108390205;78.0533333333334
0.335000000000000;87.9241250000000;0.0609780439121757;103.615984405458
0.480000000000000;29.5395750000000;0.0990051347881900;89.1796875000000
0.445000000000000;25.4601750000000;0.0967575025870990;89.4374120956400
0.475000000000000;19.5825750000000;0.127624872579001;84.7013782542114
0.425000000000000;25.1606250000000;0.0911149825783972;90.3751803751804
0.495000000000000;22.3619750000000;0.132304725168756;85.7080291970803
0.425000000000000;23.7523000000000;0.103114930182599;89.9562043795620
0.320000000000000;38.6149250000000;0.0449262113099125;106.965240641711
0.470000000000000;16.8144500000000;0.166207529843893;82.2006472491910
0.455000000000000;23.5134250000000;0.103113553113553;83.8857938718663
0.425000000000000;27.4882500000000;0.0860573715810540;87.4093959731544
0.565000000000000;18.9319750000000;0.157590051457976;78.8175182481752
0.595000000000000;20.8275750000000;0.175667156965749;77.9247910863510
0.510000000000000;24.8646750000000;0.130155820348304;79.4458762886598
0.580000000000000;20.7449750000000;0.170705086225715;71.5066666666667
0.335000000000000;15.0356000000000;0.0835866261398176;60.6808510638298
0.535000000000000;23.5285250000000;0.132622521511410;85.2816901408450
0.300000000000000;28.0681250000000;0.0504215304798962;93.4920634920635
0.270000000000000;27.4150500000000;0.0410526315789474;76.6666666666667
0.295000000000000;27.8075750000000;0.0586783137105963;70.6590621039290
0.390000000000000;30.6477000000000;0.0723974505638176;81.1124845488257
0.520000000000000;32.7728500000000;0.120700843608047;81.4622641509434
0.550000000000000;26.9638250000000;0.131120783460283;79.4522292993630
0.625000000000000;48.7679500000000;0.116068984396387;76.2056074766356
0.510000000000000;48.3090000000000;0.0804597701149425;79.5525291828794
0.585000000000000;44.8353500000000;0.112185686653772;84.5588235294117
1.53000000000000;39.9045000000000;3.55369127516778;113.240611961057
0.385000000000000;33.8786250000000;0.0685421199875661;84.9814585908529
0.825000000000000;59.3089500000000;0.201176736818285;107.886178861789
1;30.2583000000000;0.594841930116473;71
0.890000000000000;42.7231250000000;0.294647967945049;102.923777019340
0.920000000000000;38.8402250000000;0.121389489756967;78.8988361683080
1.16000000000000;27.3807250000000;0.258851431475521;65.4713656387665
0.900000000000000;52.0025250000000;0.0854476829524009;90.8955223880597
0.915000000000000;76.5131750000000;0.0707679253288078;99.3622047244095
1.04500000000000;45.0518250000000;0.129062536665493;77.7302100161551
0.965000000000000;36.6343750000000;0.164676821737341;90.5763073639274
0.885000000000000;50.8191750000000;0.0870320130222464;85.4692832764505
0.965000000000000;62.8637000000000;0.0946891319341807;92.5062447960033
0.825000000000000;64.3895500000000;0.0667790577877681;98.2743744607420
0.805000000000000;72.8838500000000;0.0612950635428374;103.073047858942
0.940000000000000;37.3121000000000;0.144522453305074;78.9041095890411
0.960000000000000;49.9749000000000;0.102322524101665;84.1304347826087
0.810000000000000;42.7832000000000;0.395371577574968;94.2951541850221
-0.145000000000000;19.3832000000000;0;163.342618384401
-0.0650000000000000;17.4127000000000;0;148.808864265928
-0.0600000000000000;7.22395000000000;0;114.793650793651
-0.275000000000000;21.5202500000000;0;199.018404907976
-0.265000000000000;18.9363750000000;0;214.947735191638
1.06000000000000;21.2778750000000;2.58654399079931;119.482758620690
-0.0300000000000000;10.5646000000000;0;112.521739130435
-0.455000000000000;40.0588250000000;0;268.826979472141
-0.220000000000000;18.6963500000000;0;191.054313099042
-0.160000000000000;16.8193000000000;0;163.423423423424
0.100000000000000;18.3050750000000;0.0186265709156194;75.1490066225166
-0.0850000000000000;10.8932750000000;0;139.105960264901
0.105000000000000;18.4772250000000;0.0173785594639866;87.8661844484630
0.0450000000000000;23.4789250000000;0.00309119010819165;102.473684210526
0.160000000000000;4.82867500000000;0.0826573966782542;83.4226190476191
0.260000000000000;8.99085000000000;0.119005328596803;81.6414686825055
0.300000000000000;6.57802500000000;0.172621153165900;79.6875000000000
0.235000000000000;9.88977500000000;0.107285145133751;84.9563318777293
-0.0700000000000000;16.6951000000000;0;143.611859838275
0.670000000000000;10.2246250000000;1.39172487909726;115.610389610390
0.0650000000000000;8.50107500000000;0.0183254344391785;85.4907161803715
0;4.97780000000000;0;96.5019011406844
-0.130000000000000;15.6092500000000;0;159.015384615385
0.115000000000000;6.99847500000000;0.0308510638297872;83.7752161383286
0.180000000000000;19.7666500000000;0.0836743974533879;41.5156794425087
0.235000000000000;7.93560000000000;0.122091169907555;65.0646950092422
0.295000000000000;2.95330000000000;0.382192610539067;80.9219858156028
0.155000000000000;8.92120000000000;0.0445699937225361;84.4670050761422
0.270000000000000;2.52802500000000;0.381020848310568;57.8614457831326
0.00500000000000000;11.1921250000000;0.000257731958762887;100.805194805195
-0.115000000000000;13.9411500000000;0;141.220930232558
-0.0800000000000000;14.5456250000000;0;134.157608695652
1.08000000000000;26.0020750000000;3.00739476678043;155.518763796910
-0.00500000000000000;11.2332500000000;0;110.134770889488
0.00500000000000000;27.6261750000000;0.000303720577069097;147.690582959641
0.0250000000000000;24.5582250000000;0.00255536626916525;120.347648261759
-0.0100000000000000;28.7112750000000;0;154.864253393665
0.105000000000000;22.9080750000000;0.00997461008342401;108.557504873294
-0.0300000000000000;26.3081500000000;0;139.869848156182
-0.0700000000000000;28.1257750000000;0;151.752808988764
-0.140000000000000;22.6145500000000;0;177.027027027027
-0.0550000000000000;12.3828750000000;0;117.093333333333
-0.0300000000000000;10.8501000000000;0;110.134770889488
0.210000000000000;5.01747500000000;0.0941619585687382;77.2606382978724
-0.0250000000000000;15.5962250000000;0;120.501193317423
-0.0950000000000000;13.2492000000000;0;124.000000000000
-0.0650000000000000;36.8269250000000;0;113.571428571429
-0.0150000000000000;27.0612500000000;0;107.424749163880
-0.0350000000000000;12.0367250000000;0;110.026178010471
0.975000000000000;21.2277500000000;1.75292081350065;120.264650283554
-0.00500000000000000;10.4374250000000;0;86.6101694915255
-0.0600000000000000;14.1281750000000;0;123.484042553191
0.200000000000000;5.59617500000000;0.0757302560403895;75.9033078880407
-0.0600000000000000;14.0036500000000;0;121.302083333333
0.445000000000000;9.20020000000000;0.341623488773748;75.7115009746589
0.415000000000000;10.0751000000000;0.252519083969466;78.7332053742803
-0.100000000000000;13.5436000000000;0;120.645161290323
-0.0400000000000000;14.4548000000000;0;125.941644562334
-0.140000000000000;12.7923000000000;0;138.367346938776
-0.0250000000000000;14.6709750000000;0;115.755395683453
-0.0650000000000000;9.28500000000000;0;128.974358974359
-0.0400000000000000;14.2455750000000;0;116.472081218274
-0.0550000000000000;9.69595000000000;0;122.257053291536
0.0850000000000000;4.15740000000000;0.0308448815377738;65.6980056980058
0;8.15337500000000;0;94.8882681564246
-0.0600000000000000;16.3968750000000;0;131.381909547739
-0.0800000000000000;12.3230250000000;0;120.414364640884
0.520000000000000;4.41570000000000;2.14084507042254;78.0174927113703
0.150000000000000;5.24582500000000;0.132966529115085;68.8300835654597
0.165000000000000;19.6849000000000;0.0259535981124656;92.0282186948853
0.100000000000000;20.1998750000000;0.0190790680609063;117.194092827004
0.0300000000000000;12.9672750000000;0.00212765957446808;105.447761194030
0.0800000000000000;18.7954250000000;0.0121951219512195;112.693965517241
-0.0650000000000000;6.91942500000000;0;119.822695035461
-0.00500000000000000;14.6134500000000;0;110.958230958231
0.150000000000000;5.29397500000000;0.0648550724637681;82.7887323943662
0.0400000000000000;9.64900000000000;0.00293881912904088;99.3121693121694
0.130000000000000;7.27990000000000;0.0528233151183971;68.3215130023641
0.270000000000000;6.62522500000000;0.107656302240054;77.5878220140515
-0.145000000000000;21.1575750000000;0;171.583333333333
0.870000000000000;18.5934000000000;2.75803402646503;145.109489051095
-0.0750000000000000;36.8969500000000;0;117.343511450382
-0.110000000000000;13.0507000000000;0;142.163742690059
0.110000000000000;10.8112500000000;0.0156871926949192;107.910447761194
-0.175000000000000;15.6018750000000;0;163.595166163142
0.0150000000000000;8.34447500000000;0.00121322414316045;94.0455840455841
-0.0650000000000000;11.7585500000000;0;134.149253731343
0.100000000000000;7.48122500000000;0.0456653585444167;77.3350923482850
0.510000000000000;20.6162750000000;0.316321243523316;60.9963985594238
0.320000000000000;14.9730000000000;0.260235558048233;65.2249637155298
0.0800000000000000;37.8506250000000;0.00795721367075398;112.474526928675
0.180000000000000;18.4061500000000;0.0621568196793323;85.8969804618117
0.460000000000000;16.7185500000000;0.162526614620298;67.9668049792531
0.450000000000000;17.6435750000000;0.157434402332362;74.2589928057554
0.0700000000000000;21.3992500000000;0.0189690721649485;91.6883116883116
1.19500000000000;18.7954250000000;1.27478042659975;73.3018867924528
1.16000000000000;16.1557500000000;1.05142857142857;72.6300578034682
0.365000000000000;24.2609750000000;0.0839222614840990;85.9243697478991
0.325000000000000;23.5775750000000;0.0804493567675303;86.9241982507289
0;25.3198500000000;0;97.7000000000000
1.46000000000000;18.8529250000000;1.68371837183718;59.1393939393940
0.130000000000000;16.2475000000000;0.0252062328139322;83.0055658627087
-0.0500000000000000;19.7272750000000;0;111.244541484716
0.835000000000000;9.98212500000001;1.85469448584203;82.9220779220779
-0.135000000000000;24.3349000000000;0;115.467625899281
0.205000000000000;31.9022250000000;0.0311053240740741;102.991329479769
-0.120000000000000;23.3702500000000;0;116.103896103896
-0.0100000000000000;23.9902750000000;0;125.793814432990
1.25000000000000;16.7528750000000;1.59732620320856;72.4925373134329
0.305000000000000;10.5897500000000;0.123631508678238;80.6130268199234
0.225000000000000;14.0568750000000;0.134012329134280;74.8849557522124
0.725000000000000;8.74262500000000;0.458007117437722;76.7228464419476
0.250000000000000;32.4025250000000;0.0404240282685512;105.157142857143
-0.0550000000000000;21.3992000000000;0;115.419222903886
-0.0600000000000000;22.3315500000000;0;119.300411522634
0.0850000000000000;16.3091500000000;0.0350022153300842;93.2534930139721
-0.0300000000000000;19.8939250000000;0;117.666666666667
-0.0200000000000000;16.9550750000000;0;101.513157894737
0.0500000000000000;18.0997250000000;0.00949824488953128;93.8387715930903
0.940000000000000;11.2892750000000;2.06111535523300;78.8779527559055
0.820000000000000;9.57457500000000;0.534911242603551;63.6824877250409
0.0750000000000000;17.8175500000000;0.0165700082850041;100.368098159509
0.320000000000000;24.2297000000000;0.0753715498938429;86.8285714285714
0.0350000000000000;16.9828500000000;0.00911983032873807;105.968819599109
0.0950000000000000;16.1679750000000;0.0438826615788218;86.1614173228347
0.175000000000000;33.0487500000000;0.0254420008624407;103.691860465116
0.0450000000000000;11.1168500000000;0.00257550924841957;112.684210526316
0.0550000000000000;18.1099750000000;0.00382139983909896;103.762993762994
0.0450000000000000;13.6717500000000;0.00197238658777120;116.040609137056
0.180000000000000;8.12135000000000;0.0444444444444444;89.9521531100479
0.0350000000000000;28.2620000000000;0.00107775211701309;102.393700787402
0.260000000000000;3.47377500000000;0.220673076923077;79.0965732087228
1.01500000000000;18.7848500000000;1.95724713242961;98.9877835951134
0.0350000000000000;13.7879750000000;0.00155902004454343;106.312056737589
0.0150000000000000;20.2084000000000;0.000542789940293107;119.181034482759
0.115000000000000;14.3699500000000;0.0129870129870130;104.590909090909
0.115000000000000;10.9744000000000;0.0112073357106470;94.2992874109265
0.320000000000000;2.39077500000000;0.462403373155306;72.7622377622378
0.00500000000000000;16.9021000000000;0.000211104074308634;104.131868131868
0.0300000000000000;13.9644000000000;0.00132216835610401;106.917647058824
0.0100000000000000;16.0306500000000;0.000408997955010225;115.377358490566
-0.105000000000000;20.5670000000000;0;153.418367346939
0.00500000000000000;18.8971000000000;0.000183654729109275;120.486725663717
1.36000000000000;42.9305000000000;2.78128898128898;154.659863945578
-0.110000000000000;9.95857499999999;0;126.519174041298
0.350000000000000;12.8386750000000;0.308103015075377;68.5032894736842
0.805000000000000;9.89972500000000;1.89637681159420;80.1002004008016
-0.0200000000000000;10.3148500000000;0;87.5544794188862
0.0900000000000000;12.0970750000000;0.00853199498117942;96.1483253588517
0.125000000000000;13.1085750000000;0.0134831460674157;89.6026490066225
0.0250000000000000;18.3011000000000;0.000974468914441629;107.223382045929
-0.0250000000000000;19.1089500000000;0;125.056433408578
-0.0200000000000000;14.4823750000000;0;115.084745762712
1.12000000000000;27.0668250000000;2.24180327868852;127.352415026834
0.0650000000000000;14.9957500000000;0.00470890410958904;104.776785714286
0.00500000000000000;14.8216250000000;0.000206868018204386;122.095959595960
0.0450000000000000;15.5166500000000;0.00186142709410548;111.870669745959
-0.0200000000000000;11.9825000000000;0;93.6690647482014
-0.0700000000000000;17.8986750000000;0;125.163551401869
0.690000000000000;9.94070000000000;1.71032745591940;102.720763723150
0;10.8145000000000;0;89.6551724137931
0.0250000000000000;15.0031750000000;0.00104646295521139;111.491841491842
0.100000000000000;7.89660000000000;0.0188034188034188;94.3535620052771
0.185000000000000;15.2439000000000;0.0568869523117889;74.2517006802721
0.455000000000000;3.55617500000000;1.58523908523909;63.6061381074169
0.0150000000000000;16.2589000000000;0.000587889476778366;122.740384615385
-0.0200000000000000;16.9115000000000;0;130.072639225182
-0.00500000000000000;16.9264750000000;0;127.054455445545
0.495000000000000;11.5293750000000;0.235110606920023;74.5719178082192
0.495000000000000;9.00917500000000;0.341785342132685;75.3021442495127
0.130000000000000;11.6092250000000;0.0160746694322012;89.2710706150342
-0.0800000000000000;17.2419000000000;0;129.660194174757
0.0800000000000000;11.4848500000000;0.00673226307612636;91.2676056338028
0.0350000000000000;26.6678000000000;0.00177105136048945;97.6766091051806
1.17500000000000;34.0870000000000;1.98096947935368;152.051282051282
0.0300000000000000;13.1386250000000;0.00136085280108868;112.627551020408
-0.0300000000000000;16.5108000000000;0;126.409638554217
-0.0850000000000000;17.0227500000000;0;144.619565217391
-0.0650000000000000;23.7297750000000;0;149.462616822430
-0.0100000000000000;27.0766250000000;0;104.890016920474
-0.0300000000000000;19.9599250000000;0;146.234096692112
-0.0200000000000000;29.3699000000000;0;119.583333333333
0.170000000000000;1.03075000000000;0.150753768844221;60.2631578947368
0.235000000000000;9.31897499999999;0.159451219512195;94.6019900497512
0.285000000000000;0.729500000000000;0.863970588235294;37.8358208955224
-0.0350000000000000;18.3530000000000;0;122.320185614849
0.145000000000000;8.72137500000000;0.117685095376657;88.4143222506394
0.0650000000000000;9.43082500000000;0.0337043908472480;83.5750000000000
-0.0800000000000000;5.03667500000000;0;140.047393364929
-0.0300000000000000;15.3419000000000;0;127.128205128205
0.0700000000000000;23.9176500000000;0.0101559666303954;92.3714759535655
0.0100000000000000;8.23547500000000;0.000544217687074830;109.761194029851
-0.105000000000000;15.5633750000000;0;141.214689265537
0.0800000000000000;12.3202250000000;0.0137154053392114;100.951219512195
0.320000000000000;1.94022500000000;0.216851730894840;61.2828947368421
0.595000000000000;23.1582000000000;0.395329265726909;109.983416252073
0.615000000000000;10.8624500000000;0.821367521367521;59.8595505617978
0.870000000000000;32.5186750000000;0.513732463939933;107.901408450704
-0.305000000000000;98.3639500000000;0;146.329411764706
1.67000000000000;36.2487000000000;1.20029197080292;83.8264738598443
0.195000000000000;34.6345000000000;0.0297109207708780;128.233333333333
1.46000000000000;29.3006000000000;0.786104218362283;84.7820965842168
1.78000000000000;42.2539500000000;1.01431639226915;84.5891783567134
1.61000000000000;31.4790750000000;1.08773474178404;82.0645905420992
1.69000000000000;35.5352000000000;1.20243395666370;81.8984547461369
1.76000000000000;35.7537750000000;1.54649947753396;77.1202531645569
1.71500000000000;35.0444000000000;1.54361479413817;79.0672451193058
1.77000000000000;37.7220000000000;1.82162974089373;80.2777777777778
0.660000000000000;19.3793500000000;0.596562184024267;108.709122203098
1.64500000000000;31.7332000000000;1.11294683088014;77.4669603524230
1.69000000000000;32.6942500000000;1.45253940455341;79.2081447963801
0.655000000000000;10.4679500000000;1.60157671315949;66
0.545000000000000;16.9737000000000;0.406587880311793;116.299376299376
0.545000000000000;48.1175500000000;0.0826081473073527;93.1019522776573
-0.310000000000000;47.4030750000000;0;170.693240901213
-0.395000000000000;97.9646750000000;0;177.682926829268
1.08000000000000;15.9304750000000;0.827695560253700;85.0327868852459
1.26500000000000;20.9941500000000;1.15339233038348;84.2712842712844
-0.0600000000000000;22.6336500000000;0;117.900990099010
1.34500000000000;21.4010250000000;1.81303688731683;79.4151212553495
0.0300000000000000;26.9635750000000;0.00171875000000000;102.248803827751
1.20000000000000;19.3505000000000;1.06109090909091;83.8461538461538
-0.170000000000000;32.8435750000000;0;153.670634920635
1.33000000000000;23.5787500000000;1.16387726638773;85.0136986301370
-0.155000000000000;45.3346750000000;0;141.275590551181
1.10500000000000;22.6881250000000;0.683975872016784;91.5977175463624
-0.385000000000000;50.7339250000000;0;194.455252918288
1.04500000000000;20.0723000000000;0.471942446043165;90.9333333333333
-0.130000000000000;45.0317500000000;0;142.926829268293
1.32500000000000;22.5275000000000;1.07750342935528;82.8727770177839
-0.175000000000000;41.6582750000000;0;150.452173913044
1.07000000000000;18.6526000000000;0.771782945736434;90.9872611464969
-0.165000000000000;41.0647000000000;0;153.996447602132
1.23000000000000;22.0406500000000;1.33981337480560;88.6303387334315
-0.0800000000000000;32.0464000000000;0;133.165467625899
1.15000000000000;16.3417750000000;1.21698943661972;80.9807073954984
-0.0600000000000000;26.8369250000000;0;118.348457350272
1.26500000000000;20.5663250000000;1.14805097451274;82.4604316546763
0;31.4128250000000;0;125.821678321678
1.05000000000000;17.8195000000000;0.774193548387097;88.9064976228210
-0.285000000000000;36.9182500000000;0;158.336557059961
0.990000000000000;17.1973250000000;0.610115606936416;91.4778325123153
-0.140000000000000;37.0887250000000;0;142.517605633803
1.18500000000000;21.0987250000000;0.842153284671533;88.0377906976744
-0.145000000000000;40.0413750000000;0;146.407599309154
1.00500000000000;20.2604500000000;0.478198024572392;92.6888217522659
-0.335000000000000;49.3544500000000;0;208.752642706131
0.990000000000000;20.3891750000000;0.454992967651196;94.4748858447488
-0.250000000000000;45.9469750000000;0;162.703180212014
1.07000000000000;24.4475000000000;0.643762183235868;96.5092989985694
-0.315000000000000;54.4375750000000;0;191.706864564008
0.800000000000000;27.8730500000000;0.209340841338191;112.338461538462
-0.485000000000000;69.2813250000000;0;242.327935222672
0.985000000000000;24.8273500000000;0.454086993065770;99.7118155619596
-0.310000000000000;50.6464750000000;0;177.238267148015
1.02000000000000;23.3844000000000;0.580282364201962;96.2682215743440
-0.435000000000000;54.2756000000000;0;216.804979253112
0.920000000000000;20.9329750000000;0.381948986265533;98.4316770186335
-0.355000000000000;49.9557750000000;0;202.479508196721
1.03500000000000;20.2305250000000;0.586520947176685;91.1360239162929
-0.370000000000000;49.0558250000000;0;192.573099415205
0.655000000000000;24.0795750000000;0.216129606551540;113.471760797342
-0.500000000000000;56.9137500000000;0;227.740585774059
0.855000000000000;20.4204000000000;0.283715270736159;100.158227848101
-0.320000000000000;42.2597000000000;0;196.702819956616
1.17000000000000;21.2926000000000;0.841787439613527;87.0185449358060
-0.390000000000000;49.4581250000000;0;209.388185654008
0.970000000000000;22.5276000000000;0.409963338365322;98.3157894736842
-0.420000000000000;49.9046250000000;0;198.469184890656
0.825000000000000;24.7187000000000;0.235062611806798;106.379044684129
-0.485000000000000;67.9346250000000;0;233.777335984095
0.840000000000000;29.1966250000000;0.302191060473269;107.822931785196
-0.605000000000000;82.0885500000000;0;255.844660194175
0.865000000000000;31.8342250000000;0.193787878787879;107.783857729138
-0.665000000000000;78.1861000000000;0;280.435729847495
0.580000000000000;41.4706250000000;0.112849872773537;127.321688500728
-0.925000000000000;101.922800000000;0;308.796680497925
0.625000000000000;39.2420250000000;0.118597680177245;123.142037302726
-0.660000000000000;80.6157000000000;0;272.985386221294
0.855000000000000;24.4775000000000;0.304069329314243;104.720121028744
-0.285000000000000;36.9008250000000;0;157.156488549618
1.23500000000000;21.8281250000000;0.839334341906203;85.2594670406732
-0.505000000000000;57.8628000000000;0;206.795366795367
0.935000000000000;32.3938000000000;0.252071383046526;98.9672544080605
-0.550000000000000;85.0350750000000;0;212.577487765090
0.960000000000000;25.7241000000000;0.378193875560757;98.2753824756606
-0.260000000000000;53.3255000000000;0;158.138801261830
1.16000000000000;25.7550250000000;0.806205627136471;95.6685236768803
-0.150000000000000;45.4057500000000;0;145.532591414944
1.20500000000000;23.1711750000000;0.841484464902186;85.0066401062417
-0.120000000000000;37.7611500000000;0;144.634581105169
1.21000000000000;23.5052500000000;0.796316964285715;89.4166666666667
-0.255000000000000;48.9481750000000;0;165.697074010327
1.17500000000000;23.1542750000000;0.691042047531993;90.6862745098039
-0.175000000000000;52.0282500000000;0;152.107765451664
1.17000000000000;24.2438250000000;0.817502076986984;92.5669957686883
-0.480000000000000;87.7796000000000;0;202.488479262673
0.965000000000000;35.0986250000000;0.321905681635281;105.837628865979
-0.590000000000000;91.1648500000000;0;217.628205128205
0.875000000000000;27.0575000000000;0.287237824386776;106.500000000000
-0.535000000000000;75.0099750000000;0;212.491289198606
0.925000000000000;25.3634500000000;0.461279461279461;102.874074074074
-0.495000000000000;77.0502000000000;0;201.895424836601
1.16500000000000;20.8034750000000;0.686963742042624;86.2093352192363
-0.325000000000000;46.0484750000000;0;172.626641651032
1.03500000000000;20.2876250000000;0.523535302954432;93.6153846153846
-0.390000000000000;58.6926500000000;0;194.104882459313
1.17500000000000;23.1942750000000;0.955725190839695;91.6309012875537
0.110000000000000;22.2597500000000;0.0168925190272879;89.5098039215687
1.37000000000000;23.4910500000000;1.45702479338843;83.1608391608392
-0.295000000000000;47.6284000000000;0;181.961538461538
1.07500000000000;24.1819500000000;0.636363636363636;97.4455732946299
-0.520000000000000;68.0704000000000;0;185.764895330113
-0.330000000000000;52.4597750000000;0;173.363309352518
0.875000000000000;29.9697250000000;0.789133823201960;143.996415770609
0.485000000000000;26.0473500000000;0.0976625040025617;92.0268456375838
0.150000000000000;35.4390500000000;0.0167897918065816;120.541401273885
2.26000000000000;65.3069250000000;1.16423813488759;75.9459459459460
0.390000000000000;17.7243500000000;0.0973053892215569;107.399267399267
0.830000000000000;14.9065000000000;0.520214030915577;71.6246498599440
0.230000000000000;27.4916250000000;0.0364521841794569;139.900398406375
0.260000000000000;42.8490750000000;0.0259710144927536;123.073713490960
0.100000000000000;46.1871000000000;0.00608298935476863;154.624373956594
0.295000000000000;45.2840750000000;0.0291888222649621;127.230769230769
0.150000000000000;37.9303000000000;0.0124730151115375;140.700000000000
0.280000000000000;32.2681750000000;0.0436403811628228;117.527216174183
0.270000000000000;33.1366500000000;0.0277421012072951;137.728055077453
0.295000000000000;33.6543500000000;0.0442978322337418;120.061919504644
0.240000000000000;39.6509500000000;0.0314142525363648;143.016949152542
1.33500000000000;35.4985500000000;0.647609359104781;97.2148859543818
1.42000000000000;34.5059250000000;0.691444303261330;91.6991963260620
0.335000000000000;36.7556250000000;0.0412133623448099;116.214285714286
0.150000000000000;36.4701250000000;0.0141071649548323;137.962962962963
0.0550000000000000;51.4072500000000;0.00288862736706965;141.815431164902
0.295000000000000;35.2561500000000;0.0365000635889610;135.157545605307
0.410000000000000;29.0602750000000;0.0718223811652511;103.051575931232
0.390000000000000;33.9241750000000;0.0724455611390285;123.520900321543
0.445000000000000;25.3735000000000;0.0962248995983936;106.959247648903
-0.0600000000000000;41.6499250000000;0;143.262295081967
0.295000000000000;101.754850000000;0.0202502469542312;110.365093499555
1.59000000000000;74.7089000000000;0.646892655367232;94.7967479674797
1.48000000000000;60.6089250000000;0.528131477642878;89.0509059534081
1.37000000000000;57.8254750000000;0.568798895536125;96.5722379603399
1.51500000000000;54.6716000000000;0.631825795644891;87.6867686768677
1.48500000000000;58.9754500000000;0.757152588555858;95.1845018450185
1.52500000000000;62.0838500000000;0.716170555108608;94.8088888888889
1.48500000000000;64.0645750000000;0.640594209489162;96.8067978533095
1.61500000000000;61.2878500000000;0.721477065739361;89.1595197255575
0.300000000000000;21.4323500000000;0.0581216976308164;108.531468531469
0.0400000000000000;30.6902250000000;0.00251221214235869;131.556776556777
0.220000000000000;18.2606500000000;0.0469063697755065;121.012658227848
-0.0850000000000000;26.3142250000000;0;176.370558375635
0.395000000000000;24.3134500000000;0.0910296799867352;101.857585139319
0.290000000000000;21.6266250000000;0.0622989673269003;119.296577946768
0.305000000000000;23.6080750000000;0.0671151952740401;118.021778584392
0.375000000000000;23.8238500000000;0.0824148708669189;110.961214165261
0.260000000000000;26.4463750000000;0.0396260017809439;123.327464788732
0.435000000000000;31.2737500000000;0.0756083429895713;111.001494768311
0.300000000000000;25.2875750000000;0.0467218137254902;119.041811846690
0.270000000000000;25.3916750000000;0.0385080036242827;119.808362369338
0.365000000000000;24.5210000000000;0.0653029110936270;113.973063973064
0.285000000000000;26.7016000000000;0.0514216575922565;115.099337748344
0.315000000000000;12.1632500000000;0.130010277492292;99.9545454545455
1.40000000000000;35.4065250000000;0.751135135135135;94.5040840140024
0.190000000000000;32.4884000000000;0.0259053302590533;123.594771241830
-0.135000000000000;40.0821250000000;0;164.885931558935
1.44500000000000;37.9170750000000;0.820389411507329;95.5338691159587
0.180000000000000;30.2284500000000;0.0215629721192144;126.496598639456
0.245000000000000;33.4157000000000;0.0281954887218045;107.556179775281
0.105000000000000;40.3364500000000;0.00581801256690715;153.534635879218
1.54000000000000;36.8488500000000;1.07554146856841;93.6591179976163
1.73500000000000;44.7785250000000;1.39357541899441;91.9420600858370
1.48000000000000;34.0358250000000;0.836969270466807;91.0581395348838
1.37500000000000;36.2277000000000;0.858249772105743;97.5358851674642
1.71000000000000;49.9787750000000;1.14459211732356;95.5975485188968
1.57500000000000;39.8343750000000;0.977814885496183;93.0527497194165
1.34000000000000;34.0936750000000;0.776600541027953;98.0223880597015
1.70000000000000;45.4244250000000;1.29206762028609;93.8551650692226
0.230000000000000;31.8750000000000;0.0294511378848728;123.434991974318
1.39000000000000;36.5663250000000;0.880339917317409;96.8875739644971
0.285000000000000;33.9383000000000;0.0450402144772118;124.536741214057
1.65500000000000;41.5390000000000;0.967802146523565;91.3759479956663
0.400000000000000;30.3118500000000;0.0653280542986426;113.634992458522
1.72000000000000;45.8638750000000;1.10721107927412;91.9270833333333
0.335000000000000;35.7768500000000;0.0441611947985065;130.176565008026
1.43500000000000;34.8577000000000;0.899401197604791;92.5320886814470
0.260000000000000;37.7451250000000;0.0313584531482400;129.208074534162
1.61500000000000;39.8191500000000;1.11002066115702;91.3870246085011
0.395000000000000;30.3514250000000;0.0604957288895113;115.795107033639
1.76000000000000;43.0544750000000;1.11250313204711;88.0982236154650
0.425000000000000;30.5911000000000;0.0834911846131430;114.400000000000
1.55500000000000;42.7077000000000;1.28312450013330;97.4288964732651
0.345000000000000;32.3030250000000;0.0416447714135576;124.278996865204
1.52500000000000;36.5948000000000;0.930036188178528;91.6380297823597
0.345000000000000;33.1887750000000;0.0481863204390309;124.104595879556
1.76500000000000;49.1470500000000;1.30000000000000;93.2304526748971
0.435000000000000;31.4344000000000;0.0674625208217657;118.856259659969
1.58500000000000;40.8936750000000;0.927516473528744;92.7103825136612
0.315000000000000;36.1486000000000;0.0438247011952191;126.118012422360
1.48000000000000;36.8944250000000;1.03941011950165;92.5144175317185
0.280000000000000;34.4578000000000;0.0340276879285807;123.333333333333
1.65000000000000;41.7231750000000;0.789176765566235;91.1927582534611
0.325000000000000;39.6424500000000;0.0423532283656780;132.814930015552
1.69500000000000;48.3010250000000;1.23016457872759;95.6691253951529
0.310000000000000;35.0224250000000;0.0354600915099136;129.523052464229
1.47000000000000;39.1021750000000;0.814727350794332;95.0843644544432
0.260000000000000;40.1481750000000;0.0274430258918983;135.606299212598
1.68500000000000;44.9264750000000;0.945951908228546;91.4093264248705
0.315000000000000;40.1970250000000;0.0360880548538434;127.789317507418
1.74500000000000;47.2736500000000;1.06160919540230;92.1685508735869
0.315000000000000;34.1046500000000;0.0457240743180920;125.371248025276
1.50500000000000;42.3648500000000;0.973719981875850;97.6681614349776
0.235000000000000;40.2475500000000;0.0219818972610791;140.452342487884
1.57500000000000;42.0412500000000;0.980279752350378;94.9010989010989
0.340000000000000;38.8995000000000;0.0453030490062955;125.637982195846
1.75000000000000;50.1907750000000;1.34094407388404;95.2505219206681
0.345000000000000;33.5423500000000;0.0484210526315790;128.309178743961
1.59000000000000;42.8262500000000;1.00741427247451;94.3790849673203
0.240000000000000;38.0023750000000;0.0276058430304531;133.242375601926
1.60000000000000;36.6939250000000;1.06673645642502;87.9398663697105
0.275000000000000;38.9586000000000;0.0309128379197479;133.921259842520
1.71500000000000;48.0043500000000;1.13741176470588;94.2323651452283
0.320000000000000;38.2617250000000;0.0385702002211031;131.288819875776
1.52500000000000;40.2491000000000;0.949781156415573;93.9400665926749
0.215000000000000;36.3955750000000;0.0218087727944800;136.398026315789
1.62000000000000;41.7764250000000;0.827681220856295;91.3453389830509
0.265000000000000;40.0558000000000;0.0338655055636188;128.155922038981
1.68000000000000;45.6366750000000;1.14382731021101;92.7492130115425
0.240000000000000;38.3426250000000;0.0230519870332573;133.348982785603
1.42500000000000;38.2779500000000;0.761904761904762;97.3010380622837
0.240000000000000;39.4140500000000;0.0244600882949529;135.639810426540
1.71500000000000;41.7449500000000;1.13268442622951;88.3864118895966
0.285000000000000;34.5215750000000;0.0368960084033613;124.558359621451
1.70000000000000;46.7836000000000;1.42116808335618;96.8201754385965
0.315000000000000;34.5416500000000;0.0401653106031254;124.868217054264
1.40500000000000;32.1442250000000;0.998137802607076;91.4859926918392
0.230000000000000;33.0221000000000;0.0267658963311137;131.505016722408
1.71500000000000;46.8977000000000;1.76737543636941;95.6140350877193
0.290000000000000;34.0361750000000;0.0354936242934140;119.893455098935
1.73000000000000;44.7847750000000;1.34101508916324;91.1645299145299
0.285000000000000;32.7374250000000;0.0355068637803590;129.242174629325
1.54000000000000;36.4242750000000;0.897624703087886;90.0676437429538
0.300000000000000;34.9957750000000;0.0375580795043883;128.213716108453
-0.0150000000000000;32.2667750000000;0;120.341463414634
0.500000000000000;34.3377000000000;0.137541345093716;187.590909090909
-0.330000000000000;35.7382750000000;0;141.716814159292
0.250000000000000;30.5451750000000;0.0316005471956224;125.265780730897
-0.0300000000000000;34.8301500000000;0;155.866141732284
0.235000000000000;27.6069000000000;0.0397489539748954;111.864951768489
-0.105000000000000;48.5477000000000;0;136.347305389222
0.270000000000000;40.5044000000000;0.0319175055241837;121.649782923300
-0.0550000000000000;41.3999250000000;0;127.362804878049
0.285000000000000;26.3504250000000;0.0429364960216184;112.959349593496
0.255000000000000;32.4607750000000;0.0386778219722946;119.825949367089
0.270000000000000;29.9348000000000;0.0343484911695175;118.439490445860
0.235000000000000;31.7436000000000;0.0261009235711418;117.396630934150
0.255000000000000;38.5402250000000;0.0268830525272547;111.261744966443
0.190000000000000;33.3117750000000;0.0220915032679739;125.304487179487
0.110000000000000;38.0964250000000;0.00963414634146341;126.784073506891
0.200000000000000;32.8516000000000;0.0218019437877594;130.318257956449
0.185000000000000;38.7022250000000;0.0171884591774094;119.898697539797
0.195000000000000;32.3842750000000;0.0222370173102530;119.579439252336
0.165000000000000;33.7601000000000;0.0208773784355180;133.667820069204
0.215000000000000;39.6740500000000;0.0218309009769630;127.782805429864
0.165000000000000;34.5335750000000;0.0204477805099004;140.803571428571
0.150000000000000;40.8362250000000;0.0113876496830242;126.877761413844
0.170000000000000;34.3563750000000;0.0184807545245985;138.973913043478
0.140000000000000;36.3671250000000;0.0158231822177571;139.706390328152
0.260000000000000;35.2417250000000;0.0310057655349135;131.272430668842
0.255000000000000;30.7995500000000;0.0324339056963750;131.756521739130
0.190000000000000;44.0943000000000;0.0182532347504621;128.671532846715
0.200000000000000;32.3805500000000;0.0245407000134102;126.072607260726
0.175000000000000;35.4497500000000;0.0191570881226054;122.769230769231
0.250000000000000;32.8024250000000;0.0394522776572668;128.857142857143
0.245000000000000;33.0688500000000;0.0325235629895128;135.741710296684
0.265000000000000;35.0531750000000;0.0289069557362240;116.224489795918
0.305000000000000;32.1131250000000;0.0440976933514247;131.090289608177
0.155000000000000;32.8621000000000;0.0186352057916611;123.344155844156
0.225000000000000;30.7143750000000;0.0383686229927526;137.608286252354
0.205000000000000;36.4928750000000;0.0269132653061225;141.245614035088
0.275000000000000;37.2756750000000;0.0294629537543511;127.204301075269
0.260000000000000;33.9367750000000;0.0362062180243998;129.704433497537
0.235000000000000;39.2662750000000;0.0269113149847095;118.741159830269
0.255000000000000;32.8967500000000;0.0400543109300747;131.615120274914
0.245000000000000;32.0711750000000;0.0372960372960373;132.255244755245
0.210000000000000;38.4366000000000;0.0192635942453060;127.245053272451
0.235000000000000;33.7979000000000;0.0273777085766187;133.750000000000
0.290000000000000;33.0732500000000;0.0474238075714091;125.433715220949
0.250000000000000;32.4938500000000;0.0354821235102925;137.025089605735
0.225000000000000;37.7069250000000;0.0253355073372633;132.711038961039
0.235000000000000;32.1318500000000;0.0263440860215054;117.476923076923
0.280000000000000;29.6238750000000;0.0406055461233730;120.573770491803
0.225000000000000;32.7870750000000;0.0280138077535847;144.189944134078
0.180000000000000;37.9449250000000;0.0193093204604530;127.674418604651
0.240000000000000;33.0717750000000;0.0318175792125149;132.363945578231
0.230000000000000;33.2496500000000;0.0301012253596164;130.421585160202
0.275000000000000;34.8446250000000;0.0374983610856169;122.492260061919
0.200000000000000;34.6106750000000;0.0236230581589421;143.141831238779
0.195000000000000;38.6339250000000;0.0225890529973936;128.533541341654
0.245000000000000;34.0448250000000;0.0318662661616821;140.337477797513
0.185000000000000;37.1265750000000;0.0162102419255803;131.767515923567
0.215000000000000;38.3864750000000;0.0234632775265795;140.993265993266
0.160000000000000;37.8303250000000;0.0148292208581500;132.734499205087
0.160000000000000;37.7223000000000;0.0155962176102174;126.840490797546
0.130000000000000;38.6252250000000;0.0133381835819086;147.650176678445
0.0750000000000000;43.4791000000000;0.00534759358288770;139.369085173502
0.170000000000000;36.9602000000000;0.0177529484792055;135.057660626030
0.125000000000000;39.6649000000000;0.0106040748242583;157.074074074074
0.130000000000000;46.6030250000000;0.00989554700384827;140.015243902439
0.160000000000000;38.7751250000000;0.0136417556346382;145.076400679117
0.110000000000000;45.6592000000000;0.00718470211119708;146.495176848875
0.155000000000000;41.0605750000000;0.0153539615564932;152.517605633803
0.0900000000000000;43.8575500000000;0.00730593607305936;141.410256410256
0.180000000000000;42.4197000000000;0.0198066493751474;147.610921501707
0.150000000000000;43.1535000000000;0.0109221934466839;148.888888888889
0.190000000000000;37.8507250000000;0.0221696350728609;137.701342281879
0.120000000000000;40.6240250000000;0.0118077695123391;157.229357798165
0.165000000000000;43.1585250000000;0.0161681487469685;132.915407854985
0.150000000000000;40.6859500000000;0.0131055464544816;150.051993067591
0.0800000000000000;44.4902250000000;0.00539265251095383;144.805825242719
0.220000000000000;36.9855000000000;0.0236436037829766;139.660441426146
0.155000000000000;36.5946500000000;0.0127388535031847;140.135593220339
0.210000000000000;36.9815000000000;0.0236397748592871;127.476635514019
0.200000000000000;35.3815250000000;0.0212094432521146;140.434027777778
0.245000000000000;36.1118250000000;0.0291124565245395;123.287037037037
0.305000000000000;32.9878750000000;0.0433673469387755;129.732888146911
0.250000000000000;34.1271750000000;0.0290254793800893;123.971518987342
0.330000000000000;29.2505000000000;0.0639560765692239;120.100502512563
0.305000000000000;39.4782750000000;0.0343011147862306;123.255474452555
0.350000000000000;31.1530750000000;0.0555633506384173;123.733552631579
0.300000000000000;35.5268000000000;0.0462595823420566;131.495016611296
0.290000000000000;36.6769500000000;0.0313199105145414;136.705107084020
0.230000000000000;34.5415000000000;0.0274753758424054;129.331158238173
0.265000000000000;38.5148500000000;0.0346120204923154;125.264750378215
0.210000000000000;36.4733500000000;0.0227188081936685;145.291005291005
0.245000000000000;35.5381000000000;0.0295165394402036;137.853492333901
0.265000000000000;31.5095250000000;0.0413764279743661;117.531446540881
0.175000000000000;34.2624750000000;0.0176889793840672;140.298245614035
0.260000000000000;35.7686000000000;0.0336091003102378;128.967741935484
0.295000000000000;37.4779750000000;0.0316935878609887;132.981072555205
0.225000000000000;34.3105000000000;0.0333863275039746;138.543516873890
0.240000000000000;34.5247250000000;0.0295726941115164;135.790378006873
0.235000000000000;37.5085500000000;0.0250303766707169;151.182795698925
0.280000000000000;30.3315750000000;0.0357290092070908;132.693661971831
0.285000000000000;31.0824250000000;0.0375272925764192;133.385964912281
0.295000000000000;13.0685000000000;0.0708324416862829;83.1229235880399
0.245000000000000;31.0208250000000;0.0336816057189992;127.010135135135
0.240000000000000;31.4487500000000;0.0313937753721245;132.326388888889
0.240000000000000;30.2955000000000;0.0310216462153592;133.535714285714
0.265000000000000;23.1574250000000;0.0372622388525102;107.306451612903
0.270000000000000;17.8687250000000;0.0469691598723857;93.1703470031546
0.270000000000000;12.4807500000000;0.0547486033519553;67.9136690647482
0.210000000000000;34.8728500000000;0.0230543879760540;141.908127208481
0.195000000000000;35.0282000000000;0.0241134751773050;138.846153846154
0.255000000000000;21.4251750000000;0.0419249592169657;106.272878535774
0.160000000000000;33.0912250000000;0.0157716371220021;142.468007312614
0.235000000000000;36.5837500000000;0.0252525252525253;125.502318392581
0.195000000000000;36.2381250000000;0.0205274944015924;148.336347197107
0.230000000000000;36.8872250000000;0.0243445692883895;127.406832298137
-0.250000000000000;150.087550000000;0;117.634584013051
0.525000000000000;24.0858000000000;0.133507397737163;107.814569536424
0.215000000000000;37.4737000000000;0.0254226675015654;129.556962025316
0.320000000000000;33.4409000000000;0.0454301075268817;120.589147286822
0.235000000000000;35.4846500000000;0.0238034945555837;136.587837837838
1.81000000000000;69.0383500000000;0.760165842768299;87.3950910530483
0.320000000000000;27.1836750000000;0.0619346926260923;110.654952076677
-0.0550000000000000;41.6189500000000;0;128.606060606061
0.290000000000000;28.1849750000000;0.0452895921033532;120.418060200669
-0.0150000000000000;40.1909750000000;0;145.025906735751
0.285000000000000;35.7946500000000;0.0419923168631607;116.017699115044
-0.0350000000000000;32.3208750000000;0;154.757085020243
1.88500000000000;62.4713000000000;0.797421731123389;95.3463587921848
0.275000000000000;52.8582750000000;0.0236792254262261;125.509677419355
-0.105000000000000;65.6304750000000;0;149.306518723994
2.00500000000000;59.3677500000000;1.12262156448203;91.1898274296095
1.77500000000000;55.0042500000000;1.05035080478745;97.5073601570167
1.95500000000000;57.0412750000000;1.55203011562248;93.4153543307087
1.87000000000000;57.0667750000000;1.38052452646916;95.9197651663406
2.04500000000000;60.8265500000000;1.01741539679398;89.2644483362522
0.180000000000000;48.2142750000000;0.0180841736080666;143.127889060093
-0.245000000000000;67.9297750000000;0;166.250000000000
0.300000000000000;38.3753000000000;0.0372098735109910;125.125925925926
0.160000000000000;8.46360000000000;0.0856604957640414;80.6526806526807
2.08000000000000;61.3389000000000;2.14427860696517;89.8578199052133
2.03000000000000;55.1486250000000;1.77976007382344;86.2309160305343
2.20500000000000;61.9308750000000;1.96066708621775;85.1493212669684
0.380000000000000;25.3286750000000;0.0810853950518755;108.022328548644
0.0650000000000000;30.4172500000000;0.00555634705798547;122.322357019064
2.10000000000000;55.8899000000000;1.93760316936283;84.5014245014245
1.94000000000000;51.5594000000000;1.91340688732865;88.4670050761421
0.420000000000000;30.1013250000000;0.0753834915997078;124.762711864407
1.97500000000000;51.8846500000000;1.04521276595745;86.5666041275797
0.580000000000000;29.7240500000000;0.113193514799941;108.306801736614
2.07000000000000;62.2635250000000;1.35907699552625;89.2959001782532
2.06000000000000;59.1584250000000;1.19260743709641;87.9982126899017
1.82500000000000;51.4598000000000;1.48075370121131;92.3446893787575
2.07500000000000;65.0861750000000;1.50147130946542;89.6397188049209
1.98500000000000;64.7287250000000;1.12477396021700;94.4196428571429
1.89000000000000;57.0289750000000;0.989894987121062;92.8188539741220
2.16000000000000;67.5234250000000;1.26209417329607;90.1542416452442
1.89000000000000;57.1018000000000;1.35461334618164;92.1206409048068
1.17000000000000;37.0992750000000;0.751395534290271;115.440210249672
0.215000000000000;24.8206500000000;0.0308868501529052;113.501683501684
0.0200000000000000;38.5579500000000;0.000873362445414847;126.132075471698
0.350000000000000;30.3626000000000;0.0734767025089606;102.685714285714
0.0450000000000000;40.1648000000000;0.00277008310249308;116.262773722628
0.260000000000000;33.9975500000000;0.0308955807587016;118.560719640180
-0.0400000000000000;44.2445000000000;0;129.515151515152
0.305000000000000;24.9454500000000;0.0550171928727727;110.837438423645
-0.0450000000000000;40.1858000000000;0;148.752196836555
0.330000000000000;25.1418000000000;0.0511328842620943;115.589225589226
-0.0650000000000000;42.0585000000000;0;137.183544303798
0.350000000000000;35.5280750000000;0.0568151147098515;124.896331738437
0.215000000000000;35.5278750000000;0.0249807840122982;120.678733031674
0.190000000000000;30.9521000000000;0.0244235229908582;132.416225749559
0.150000000000000;34.6907750000000;0.0135066902297400;145.981818181818
0.230000000000000;39.4467500000000;0.0223665223665224;127.466266866567
0.210000000000000;35.1670250000000;0.0225479143179256;135.149006622517
0.165000000000000;35.9862750000000;0.0199390398780798;130.585365853659
0.280000000000000;37.8860000000000;0.0313545668608254;123.839285714286
0.215000000000000;34.9884500000000;0.0232852442419641;134.766666666667
0.240000000000000;41.2297500000000;0.0279477030106753;125.844346549192
0.235000000000000;36.4967500000000;0.0229176934450468;137.223140495868
0.195000000000000;38.8159500000000;0.0180592342884662;132.955974842767
0.280000000000000;38.0104500000000;0.0348938283869366;130.422535211268
0.205000000000000;37.6553000000000;0.0199756394640682;143.883161512027
0.270000000000000;43.7189750000000;0.0282309383315978;127.503586800574
0.220000000000000;37.4777750000000;0.0232300884955752;144.031141868512
0.250000000000000;40.7461750000000;0.0313373011053079;134.564183835182
0.340000000000000;33.3481750000000;0.0515867656988521;126.824104234528
0.245000000000000;37.1405250000000;0.0299273729025795;142.301038062284
0.240000000000000;41.3509250000000;0.0243815413891532;128.360655737705
0.275000000000000;32.8346250000000;0.0374612585904865;132.741379310345
0.235000000000000;41.7500750000000;0.0253404381290705;146.020236087690
0.335000000000000;34.5707250000000;0.0450931838915678;123.179723502304
0.225000000000000;33.3275500000000;0.0314381270903010;131.794871794872
0.245000000000000;39.9783250000000;0.0274323335771763;132.084639498433
0.285000000000000;32.2179250000000;0.0434011191483554;135.309734513274
0.285000000000000;32.2391500000000;0.0420098846787479;134.336283185841
0.390000000000000;29.1139000000000;0.0656654888103651;107.071005917160
0.325000000000000;25.1640250000000;0.0643743130789763;121.270125223614
0.330000000000000;28.0989500000000;0.0539982295662437;119.265442404007
0.440000000000000;28.2050250000000;0.0679167281854422;112.663551401869
0.240000000000000;32.8422250000000;0.0358881624704409;119.152000000000
0.370000000000000;32.3299250000000;0.0641260019687807;109.191919191919
0.395000000000000;29.5354250000000;0.0742044288018771;121.880199667221
0.335000000000000;31.8775500000000;0.0609893198426082;126.677852348993
0.310000000000000;37.9415500000000;0.0369169368919930;119.111747851003
0.280000000000000;34.2320750000000;0.0394422310756972;134.253859348199
0.275000000000000;40.2404750000000;0.0279402985074627;129.653614457831
0.375000000000000;32.9632750000000;0.0523114355231144;116.541916167665
0.300000000000000;32.1353750000000;0.0475732160043998;131.588946459413
0.325000000000000;34.5374750000000;0.0410940976312001;119.984917043741
0.370000000000000;10.3195250000000;0.243092298647854;87.5569358178054
0.00500000000000000;36.9921000000000;0.000126534227508541;123.500000000000
0.320000000000000;25.6282250000000;0.0513055428309666;112.316476345840
-0.0450000000000000;42.0374500000000;0;146.408094435076
0.310000000000000;34.8572250000000;0.0463443867359169;117.972972972973
0.165000000000000;47.3836250000000;0.0148371392140953;126.152737752161
0.385000000000000;24.9354750000000;0.0753158406219631;100.287009063444
0.00500000000000000;36.0452000000000;0.000130089761935736;128.133333333333
0.445000000000000;21.1799000000000;0.121502076187037;101.337683523654
-0.0450000000000000;35.6566500000000;0;130.231788079470
0.870000000000000;15.4298250000000;1.95688689809631;73.0428769017981
0.405000000000000;19.6040750000000;0.0972854800510111;105.481611208406
0.00500000000000000;37.4489250000000;0.000125407574617507;137.975778546713
0.310000000000000;25.0083500000000;0.0623710522139343;110.644628099174
0.135000000000000;48.7835000000000;0.0131639722863741;123.403656821378
0.895000000000000;89.9047000000000;0.176610505450941;90.3500761035008
1.55000000000000;54.8784250000000;0.651178338626107;93.3742911153120
0.555000000000000;109.262775000000;0.0682403433476395;96.9236760124611
1.59500000000000;53.3940750000000;0.779908849221420;86.7870370370371
0.700000000000000;106.128775000000;0.0897538434195326;93.8973966309342
0.705000000000000;81.5603750000000;0.100275707137751;99.3087557603687
0.700000000000000;105.612775000000;0.0968834100182307;98.7881157154027
1.45000000000000;46.7908750000000;0.614146164978292;74.0497925311204
0.615000000000000;118.002875000000;0.0643471142038477;97.1674140508222
0.765000000000000;102.505550000000;0.115117641756062;94.2117288651943
0.865000000000000;87.5501500000000;0.153165552497051;93.8400000000000
2.09500000000000;93.0447500000000;7.41933287950987;131.295116772824
0.865000000000000;59.7845750000000;0.207803344290410;72.7906976744187
0.570000000000000;94.4489750000000;0.142139974406930;91.5785319652723
1.57000000000000;54.0515250000000;0.662480909553708;91.8181818181819
0.945000000000000;79.5365250000000;0.211501392161062;90.9405144694534
1.63000000000000;47.9125750000000;1.02095375722543;80.9161041465767
0.925000000000000;79.7362500000000;0.191127382362442;86.5571205007825
1.30500000000000;47.7731250000000;0.495172191824912;90.6439024390244
2.10000000000000;62.0841000000000;2.26251432938479;77.3369565217392
1.06000000000000;77.5606500000000;0.227549551544679;86.6093750000000
1.07000000000000;57.7055000000000;0.295511221945137;104.004004004004
1.34000000000000;53.9950000000000;0.508761419799311;99.8414271555996
0.465000000000000;128.222175000000;0.0489012225305632;111.256961018298
1.85000000000000;43.4853750000000;2.09947853991175;69.0527256478999
0.880000000000000;87.2777000000000;0.195640892579139;88.4113584036838
0.280000000000000;111.884450000000;0.0199190787426082;118.947368421053
1.06000000000000;97.3821500000000;0.159706601466993;94.8640000000000
1.57000000000000;57.3508750000000;0.977148437500000;83.5920726672172
0.890000000000000;82.0713500000000;0.184357541899441;90.9293089753773
1.17000000000000;77.8220250000000;0.236769124104460;81.8898240244835
1.58500000000000;54.9165000000000;1.01016166281755;71.9933829611249
1.06500000000000;93.4666500000000;0.222255820985788;86.0610361958836
0.800000000000000;105.669200000000;0.158095584226785;94.7657992565056
1.45000000000000;54.7075250000000;0.708289794496691;80.0081566068515
0.520000000000000;111.261125000000;0.0439657954178767;103.860353130016
1.42000000000000;74.0941000000000;0.367362895118955;114.625468164794
1.22500000000000;70.7951750000000;0.372431397574984;80.0074404761905
0.800000000000000;99.1720750000000;0.110875966139124;92.6554105909440
1.57000000000000;62.5888000000000;0.729954992498750;81.7165354330709
1.06500000000000;82.8485750000000;0.191647477496337;83.4065934065934
0.690000000000000;19.4647750000000;0.374445149017121;46.8142548596113
0.460000000000000;110.609825000000;0.0370162647223780;112.254986990460
0.325000000000000;124.310375000000;0.0183884746253529;133.843958135109
1.03500000000000;75.8640250000000;0.176951591801134;93.3823529411765
1.21500000000000;70.0354250000000;0.310270680495826;89.3787748058671
1.03500000000000;51.6205250000000;0.264379562043796;85.2460629921260
1.08000000000000;85.0469500000000;0.202542555483732;97.3996509598604
1.17000000000000;43.6622500000000;0.436825396825397;95.7883597883598
0.605000000000000;99.3180750000000;0.0651474530831099;96.5883306320908
1.71000000000000;48.3190500000000;1.96288998357964;84.0037243947858
1.30500000000000;56.2375500000000;0.500928217821782;81.2562814070352
1.21500000000000;53.1865250000000;0.365187258429961;106.365524402908
1.06000000000000;66.1122750000000;0.250674893945237;87.6486486486486
0.760000000000000;88.8749250000000;0.130636195182211;100.301369863014
0.765000000000000;86.0016500000000;0.195329087048832;88.2445141065830
1.78000000000000;47.3814500000000;1.23559670781893;76.2456140350877
0.775000000000000;76.7281250000000;0.120903595291123;88.9646464646465
1.17000000000000;53.6311250000000;0.402365977837676;80.1797945205479
1.36500000000000;38.7382250000000;1.05740107474353;89.0380549682875
0.300000000000000;111.977425000000;0.0184880532706620;114.951370468612
0.550000000000000;88.1414250000000;0.0605174147545479;118.862704918033
1.69000000000000;55.5328750000000;0.907108081791627;80.2704918032787
0.535000000000000;87.4399000000000;0.0875410815655811;91.3807531380753
0.500000000000000;111.066750000000;0.0571282401091405;116.303939962477
0.605000000000000;91.2700250000000;0.103204617834395;89.6119644300727
1.77500000000000;53.2930750000000;1.10108548168250;74.2685851318945
0.825000000000000;103.516450000000;0.104166666666667;103.501683501684
0.690000000000000;98.5850500000000;0.164013975155279;92.9047250193649
0.740000000000000;91.4445000000000;0.185109219567224;90.2812500000000
1.89000000000000;52.5093000000000;1.55977175463623;74.5802161263508
0.715000000000000;88.0663250000000;0.147877452943532;92.0883534136546
1.57000000000000;40.0322500000000;1.15611353711790;64.5424836601307
0.805000000000000;92.5080750000000;0.148805323117250;84.9105812220567
0.715000000000000;97.9845000000000;0.160996413686149;92.8527131782946
0.790000000000000;97.5588000000000;0.110070257611241;91.3646877409406
0.630000000000000;104.109275000000;0.116080448158692;94.3555900621118
0.530000000000000;75.6355000000001;0.0825426944971537;76.2573099415205
0.815000000000000;91.1594250000000;0.120119829918825;89.0245775729647
1.26500000000000;53.7214500000000;0.449790492703367;101.047331319235
0.685000000000000;114.347150000000;0.0836666950378756;94.5913818722140
0.510000000000000;113.296175000000;0.0818935119887165;92.8366111951589
0.605000000000000;101.375375000000;0.0902777777777778;92.7165354330709
1.78500000000000;49.1368000000000;1.16930693069307;71.2520325203252
0.920000000000000;82.1599250000000;0.210023610216785;88.9897395422258
0.535000000000000;89.1784000000000;0.0960528874197939;97.5259515570934
0.570000000000000;92.1219250000000;0.0800608538556622;97.2517123287671
0.510000000000000;86.3607750000000;0.0723811364514882;98.2035398230089
0.945000000000000;82.9565250000000;0.175139491630502;89.6217494089835
0.550000000000000;89.6220500000000;0.127000202552157;90.0323624595469
0.780000000000000;68.2229750000000;0.176352468698323;85.8534482758620
1.44500000000000;43.3553000000000;0.742747007506594;90.3259726603576
1.60500000000000;51.4626750000000;0.849811020489358;78.4064080944351
0.565000000000000;98.8077750000000;0.0683876811594203;110.751173708920
0.765000000000000;77.4598500000000;0.163822906211665;83.6888532477947
1.01500000000000;101.079250000000;0.174825174825175;102.075949367089
0.775000000000000;86.7948750000000;0.112449799196787;92.1086780210868
0.610000000000000;97.1191000000000;0.124123148869836;92.3040000000000
0.565000000000000;91.3717250000000;0.121478193747588;97.0200333889816
1.39000000000000;49.4271000000000;0.595206391478029;97.7959183673470
1.54500000000000;49.0488500000000;1.01182395445588;82.3297491039427
1.55000000000000;48.7970500000000;0.798991074893287;95.7851239669422
0.635000000000000;94.3455250000000;0.0658883156846774;97.4917218543047
0.590000000000000;68.9719250000000;0.152548869298582;80.5446428571428
0.650000000000000;86.6585500000000;0.123581723397731;108.188976377953
1.39000000000000;53.0714250000000;0.566781665845244;78.9486754966888
0.830000000000000;88.2937750000000;0.156208414371993;85.5034065102195
0.790000000000000;83.1380250000000;0.251092179991263;93.3577832110839
1.01000000000000;79.3011500000000;0.391252390057361;90.4584304584304
1.22000000000000;51.4736000000000;0.568265682656826;93.3133732534930
0.350000000000000;95.4333500000000;0.0427754064117701;98.9827586206896
1.43500000000000;64.7288250000000;0.676879787400344;93.3594429939078
0.910000000000000;74.1029250000000;0.193688048308078;83.4820717131474
1.32500000000000;44.9964750000000;0.938392666808783;93.6457260556128
0.520000000000000;59.8457750000000;0.140738016427608;92.4950298210736
1.66000000000000;43.2967250000000;1.45825879546810;73.7477638640430
0.835000000000000;81.8521500000000;0.166442652329749;84.3238866396761
0.475000000000000;83.7483750000000;0.107153791203184;95.2502194907814
0.715000000000000;87.4807250000000;0.130665332666333;92.6311475409836
1.61000000000000;50.3655000000000;0.956034482758621;74.5155993431856
0.800000000000000;76.5653500000000;0.171583250469561;86.5632653061225
0.505000000000000;99.6291500000000;0.100562263803115;99.1694352159469
0.775000000000000;71.4481750000000;0.153448081898976;87.7074422583405
1.51500000000000;41.2439250000000;0.934238240112334;74.0591397849462
0.470000000000000;98.3425000000000;0.0620701816258156;102.606473594549
1.44500000000000;36.9578500000000;0.938180019782394;75.4379210779596
0.455000000000000;81.7496750000000;0.104152005629838;100.118505013674
0.370000000000000;94.1626750000000;0.0629017447199265;101.802990325418
0.740000000000000;85.1125500000000;0.153971155799309;93.0548730548730
0.855000000000000;82.5595500000000;0.186885245901639;88.0156862745098
0.785000000000000;93.8512750000000;0.116096731532212;92.5215348472983
0.715000000000000;90.3806500000000;0.103414346157631;99.5914742451155
1.70500000000000;53.1462250000000;1.15921205098494;76.2438625204583
0.920000000000000;81.8586000000000;0.222294092281156;87.0145817344590
0.820000000000000;91.9030750000000;0.183504537748080;89.6299093655589
1.68000000000000;40.5588250000000;1.64020618556701;67.0418848167539
0.950000000000000;81.8906500000000;0.278557114228457;86.6716981132075
0.465000000000000;104.177825000000;0.0594393493684028;103.420608108108
0.430000000000000;117.168650000000;0.0383476102794012;124.831568816169
0.895000000000000;81.4951250000000;0.200829698968195;89.5241871530531
0.370000000000000;125.904250000000;0.0265861027190332;112.796680497925
1.03500000000000;31.6926750000000;0.479422664326117;78.6825726141079
0.135000000000000;78.4445250000000;0.0141836937115652;115.798414496036
0.580000000000000;11.0356000000000;0.621836587129429;104.813084112150
0.510000000000000;102.066425000000;0.0613965043030787;119.510489510489
0.655000000000000;102.687225000000;0.0816656196715427;111.601851851852
1.58500000000000;40.2405500000000;1.02468513853904;71.7038358608386
0.375000000000000;99.2694750000000;0.0404883189882312;123.534932221064
1.77000000000000;46.3818500000000;1.72808988764045;77.0444242973708
0.610000000000000;99.7437000000000;0.0851295055243615;96.7070217917676
0.505000000000000;102.552450000000;0.0484566304535265;113.751169317119
0.470000000000000;88.0947250000000;0.0472194042239233;118.652037617555
0.980000000000000;70.1568750000000;0.223636363636364;93.2994454713493
0.940000000000000;79.2205500000000;0.192054483541430;91.7205240174672
0.775000000000000;86.2461250000000;0.165632112559487;86.9367283950618
0.870000000000000;75.8856750000000;0.266912527371211;87.8035143769968
1.69000000000000;49.8661750000000;1.02836061793867;89.8569969356487
1.70500000000000;49.6861000000000;1.01604032997250;87.4552683896621
2.03000000000000;83.8308250000000;6.12303030303030;128.307860262009
0.815000000000000;96.4578750000000;0.132701421800948;108.234750462107
0.660000000000000;94.3963250000000;0.125608475708695;93.3729216152019
0.575000000000000;95.8580750000000;0.109397451863205;93.6974110032362
0.695000000000000;85.0441250000000;0.138157894736842;91.4227642276423
0.760000000000000;72.8322500000000;0.191698027141065;85.0977198697068
0.855000000000000;70.8523000000000;0.226607847689807;87.6119402985074
0.615000000000000;88.4933500000000;0.0961004119957842;98.8764044943820
0.570000000000000;88.4948500000000;0.0757214972854558;96.7780634104542
0.500000000000000;81.4099750000000;0.0784930950446791;93.7422771403354
0.600000000000000;72.0449750000000;0.0885816139137950;93.3920296570899
0.620000000000000;80.3439250000000;0.0925945106162610;106.126760563380
0.735000000000000;75.6023750000000;0.123452838241571;90.3001715265866
0.695000000000000;75.5211000000000;0.134456557647836;86.7171717171717
0.725000000000000;76.3332000000000;0.163317993040745;84.3973941368078
0.810000000000000;78.8670750000000;0.155700541855579;96.9480519480519
0.760000000000000;78.6214000000000;0.137990887394229;101.157184185149
0.775000000000000;81.7587250000000;0.148282284768212;92.0912863070539
0.540000000000000;103.774375000000;0.0569670329670330;113.531633616619
0.535000000000000;100.277775000000;0.0651780871451817;116.317867719645
0.575000000000000;83.5088000000000;0.0709462765436931;105.943852855760
0.800000000000000;72.3658000000000;0.235519442832269;88.9223057644110
0.760000000000000;69.3951750000000;0.194133584638945;85.1848739495798
0.620000000000000;88.0555000000000;0.108755398508049;92.9711934156379
0.660000000000000;92.3673000000000;0.121695141739048;95.0040420371868
2.15500000000000;93.3611250000000;10.1797020484171;128.279914529914
0.765000000000000;94.4307250000000;0.130672027570362;92.7808326787117
1.42000000000000;44.3864250000000;0.644150027990297;90.8350515463918
0.630000000000000;87.3675750000000;0.115092708233260;99.5454545454545
0.700000000000000;94.7327250000000;0.149797179833881;95.5457463884430
1.36000000000000;42.5057750000000;0.691555200638850;88.3524504692388
0.835000000000000;90.2462750000000;0.114089347079038;96.9000853970966
1.40000000000000;43.0939500000000;0.684066471163246;92.6236559139785
1.57000000000000;42.4845250000000;1.00562347188264;89.8466593647317
1.69500000000000;65.5500000000000;1.22373424054433;98.8612099644129
0.680000000000000;79.8093500000000;0.154500577670413;91.6000000000000
0.805000000000000;71.8913750000000;0.241823119612705;90.8203799654577